time	2HRF HbO_1_1	2HRF HbR_1_1	2HRF HbT_1_1	2HRF HbO_1_2	2HRF HbR_1_2	2HRF HbT_1_2	2HRF HbO_2_1	2HRF HbR_2_1	2HRF HbT_2_1	2HRF HbO_3_1	2HRF HbR_3_1	2HRF HbT_3_1	2HRF HbO_3_2	2HRF HbR_3_2	2HRF HbT_3_2	2HRF HbO_3_4	2HRF HbR_3_4	2HRF HbT_3_4	2HRF HbO_4_2	2HRF HbR_4_2	2HRF HbT_4_2	2HRF HbO_4_3	2HRF HbR_4_3	2HRF HbT_4_3	2HRF HbO_4_4	2HRF HbR_4_4	2HRF HbT_4_4	2HRF HbO_5_3	2HRF HbR_5_3	2HRF HbT_5_3	2HRF HbO_5_4	2HRF HbR_5_4	2HRF HbT_5_4	2HRF HbO_6_5	2HRF HbR_6_5	2HRF HbT_6_5	2HRF HbO_6_6	2HRF HbR_6_6	2HRF HbT_6_6	2HRF HbO_7_5	2HRF HbR_7_5	2HRF HbT_7_5	2HRF HbO_8_5	2HRF HbR_8_5	2HRF HbT_8_5	2HRF HbO_8_6	2HRF HbR_8_6	2HRF HbT_8_6	2HRF HbO_8_7	2HRF HbR_8_7	2HRF HbT_8_7	2HRF HbO_9_6	2HRF HbR_9_6	2HRF HbT_9_6	2HRF HbO_9_7	2HRF HbR_9_7	2HRF HbT_9_7	2HRF HbO_9_8	2HRF HbR_9_8	2HRF HbT_9_8	2HRF HbO_10_7	2HRF HbR_10_7	2HRF HbT_10_7	2HRF HbO_10_8	2HRF HbR_10_8	2HRF HbT_10_8	3HRF HbO_1_1	3HRF HbR_1_1	3HRF HbT_1_1	3HRF HbO_1_2	3HRF HbR_1_2	3HRF HbT_1_2	3HRF HbO_2_1	3HRF HbR_2_1	3HRF HbT_2_1	3HRF HbO_3_1	3HRF HbR_3_1	3HRF HbT_3_1	3HRF HbO_3_2	3HRF HbR_3_2	3HRF HbT_3_2	3HRF HbO_3_4	3HRF HbR_3_4	3HRF HbT_3_4	3HRF HbO_4_2	3HRF HbR_4_2	3HRF HbT_4_2	3HRF HbO_4_3	3HRF HbR_4_3	3HRF HbT_4_3	3HRF HbO_4_4	3HRF HbR_4_4	3HRF HbT_4_4	3HRF HbO_5_3	3HRF HbR_5_3	3HRF HbT_5_3	3HRF HbO_5_4	3HRF HbR_5_4	3HRF HbT_5_4	3HRF HbO_6_5	3HRF HbR_6_5	3HRF HbT_6_5	3HRF HbO_6_6	3HRF HbR_6_6	3HRF HbT_6_6	3HRF HbO_7_5	3HRF HbR_7_5	3HRF HbT_7_5	3HRF HbO_8_5	3HRF HbR_8_5	3HRF HbT_8_5	3HRF HbO_8_6	3HRF HbR_8_6	3HRF HbT_8_6	3HRF HbO_8_7	3HRF HbR_8_7	3HRF HbT_8_7	3HRF HbO_9_6	3HRF HbR_9_6	3HRF HbT_9_6	3HRF HbO_9_7	3HRF HbR_9_7	3HRF HbT_9_7	3HRF HbO_9_8	3HRF HbR_9_8	3HRF HbT_9_8	3HRF HbO_10_7	3HRF HbR_10_7	3HRF HbT_10_7	3HRF HbO_10_8	3HRF HbR_10_8	3HRF HbT_10_8	status
-2	1.38E-05	-4.27E-05	-2.88E-05	-9.01E-05	-6.54E-05	-1.56E-04	2.25E-17	8.92E-17	1.12E-16	-1.77E-04	-1.31E-04	-3.08E-04	-5.93E-05	-7.88E-05	-1.38E-04	-2.73E-05	-5.56E-05	-8.29E-05	2.83E-05	6.38E-07	2.89E-05	5.10E-05	3.32E-06	5.43E-05	4.19E-05	9.70E-06	5.16E-05	5.00E-05	4.98E-06	5.50E-05	8.53E-05	1.55E-05	1.01E-04	-3.93E-05	-4.49E-05	-8.42E-05	-7.26E-05	-5.34E-05	-1.26E-04	2.07E-15	-6.09E-16	1.46E-15	-1.04E-04	-4.72E-05	-1.51E-04	-8.63E-05	-5.03E-05	-1.37E-04	-3.57E-06	-8.81E-06	-1.24E-05	-7.67E-07	7.27E-06	6.50E-06	3.62E-06	8.54E-06	1.22E-05	1.18E-05	5.96E-06	1.77E-05	-1.12E-06	1.03E-05	9.20E-06	1.18E-05	4.91E-07	1.23E-05	1.87E-05	-1.99E-05	-1.18E-06	-6.69E-05	-3.62E-05	-1.03E-04	2.64E-16	-3.37E-16	-7.32E-17	-8.42E-05	-5.45E-05	-1.39E-04	-1.13E-04	-4.18E-05	-1.55E-04	-5.19E-05	-1.78E-05	-6.97E-05	7.55E-06	6.44E-06	1.40E-05	1.77E-05	-1.33E-07	1.75E-05	2.79E-05	8.14E-06	3.60E-05	-3.58E-06	3.00E-06	-5.74E-07	2.89E-05	6.34E-06	3.53E-05	-1.01E-07	-2.72E-05	-2.73E-05	-1.51E-05	-2.46E-05	-3.97E-05	1.39E-15	5.99E-16	1.99E-15	-6.38E-06	-1.51E-05	-2.15E-05	1.21E-07	-1.84E-05	-1.83E-05	1.34E-05	1.00E-06	1.44E-05	3.01E-06	5.97E-06	8.98E-06	4.24E-06	2.11E-06	6.35E-06	-2.20E-06	2.41E-06	2.10E-07	-1.09E-06	3.90E-06	2.81E-06	9.60E-06	-1.16E-06	8.45E-06	1
-1.96	1.35E-05	-3.79E-05	-2.43E-05	-9.28E-05	-6.32E-05	-1.56E-04	1.47E-17	9.48E-17	1.09E-16	-1.79E-04	-1.28E-04	-3.08E-04	-6.61E-05	-7.76E-05	-1.44E-04	-3.18E-05	-5.57E-05	-8.75E-05	2.51E-05	1.55E-06	2.66E-05	4.77E-05	2.62E-06	5.04E-05	4.07E-05	9.73E-06	5.05E-05	4.62E-05	4.09E-06	5.03E-05	8.41E-05	1.53E-05	9.94E-05	-4.25E-05	-4.42E-05	-8.67E-05	-7.48E-05	-5.13E-05	-1.26E-04	2.04E-15	-6.17E-16	1.42E-15	-1.00E-04	-4.44E-05	-1.44E-04	-8.66E-05	-4.82E-05	-1.35E-04	-9.39E-07	-7.10E-06	-8.04E-06	-5.00E-07	7.63E-06	7.13E-06	3.57E-06	7.93E-06	1.15E-05	1.06E-05	5.67E-06	1.63E-05	-1.17E-06	9.69E-06	8.51E-06	1.01E-05	-4.33E-07	9.71E-06	1.75E-05	-1.77E-05	-2.58E-07	-6.41E-05	-3.42E-05	-9.83E-05	2.72E-16	-3.42E-16	-7.05E-17	-7.77E-05	-4.99E-05	-1.28E-04	-1.07E-04	-3.99E-05	-1.47E-04	-4.98E-05	-1.73E-05	-6.71E-05	6.89E-06	5.85E-06	1.27E-05	1.65E-05	7.67E-08	1.65E-05	2.53E-05	7.48E-06	3.28E-05	-4.21E-06	3.54E-06	-6.64E-07	2.69E-05	5.85E-06	3.27E-05	7.58E-07	-2.36E-05	-2.29E-05	-1.46E-05	-2.26E-05	-3.73E-05	1.40E-15	5.96E-16	1.99E-15	-6.68E-06	-1.38E-05	-2.05E-05	-8.76E-07	-1.69E-05	-1.78E-05	1.17E-05	7.60E-07	1.24E-05	1.99E-06	5.76E-06	7.75E-06	3.39E-06	2.09E-06	5.48E-06	-2.45E-06	2.33E-06	-1.18E-07	-1.36E-06	3.74E-06	2.38E-06	8.83E-06	-1.21E-06	7.62E-06	1
-1.92	1.32E-05	-3.32E-05	-2.00E-05	-9.53E-05	-6.09E-05	-1.56E-04	6.98E-18	1.00E-16	1.07E-16	-1.81E-04	-1.26E-04	-3.06E-04	-7.25E-05	-7.63E-05	-1.49E-04	-3.60E-05	-5.57E-05	-9.17E-05	2.19E-05	2.41E-06	2.43E-05	4.45E-05	1.95E-06	4.64E-05	3.95E-05	9.74E-06	4.92E-05	4.23E-05	3.23E-06	4.56E-05	8.28E-05	1.50E-05	9.79E-05	-4.55E-05	-4.35E-05	-8.90E-05	-7.67E-05	-4.92E-05	-1.26E-04	1.99E-15	-6.23E-16	1.37E-15	-9.61E-05	-4.15E-05	-1.38E-04	-8.67E-05	-4.61E-05	-1.33E-04	1.59E-06	-5.45E-06	-3.87E-06	-2.44E-07	7.96E-06	7.71E-06	3.51E-06	7.31E-06	1.08E-05	9.44E-06	5.36E-06	1.48E-05	-1.23E-06	9.06E-06	7.83E-06	8.48E-06	-1.33E-06	7.15E-06	1.63E-05	-1.56E-05	6.35E-07	-6.12E-05	-3.23E-05	-9.35E-05	2.78E-16	-3.46E-16	-6.74E-17	-7.13E-05	-4.53E-05	-1.17E-04	-1.02E-04	-3.80E-05	-1.40E-04	-4.76E-05	-1.67E-05	-6.44E-05	6.23E-06	5.27E-06	1.15E-05	1.52E-05	2.76E-07	1.55E-05	2.28E-05	6.83E-06	2.96E-05	-4.80E-06	4.05E-06	-7.50E-07	2.48E-05	5.35E-06	3.02E-05	1.60E-06	-2.02E-05	-1.86E-05	-1.42E-05	-2.07E-05	-3.49E-05	1.40E-15	5.91E-16	1.99E-15	-6.95E-06	-1.25E-05	-1.95E-05	-1.84E-06	-1.55E-05	-1.73E-05	9.98E-06	5.19E-07	1.05E-05	9.95E-07	5.54E-06	6.53E-06	2.57E-06	2.06E-06	4.63E-06	-2.69E-06	2.25E-06	-4.37E-07	-1.63E-06	3.58E-06	1.95E-06	8.06E-06	-1.25E-06	6.81E-06	1
-1.88	1.28E-05	-2.85E-05	-1.57E-05	-9.74E-05	-5.85E-05	-1.56E-04	-7.18E-19	1.05E-16	1.04E-16	-1.82E-04	-1.22E-04	-3.05E-04	-7.85E-05	-7.48E-05	-1.53E-04	-4.00E-05	-5.55E-05	-9.56E-05	1.88E-05	3.23E-06	2.20E-05	4.12E-05	1.29E-06	4.25E-05	3.82E-05	9.71E-06	4.79E-05	3.85E-05	2.40E-06	4.09E-05	8.14E-05	1.48E-05	9.61E-05	-4.82E-05	-4.27E-05	-9.09E-05	-7.84E-05	-4.70E-05	-1.25E-04	1.94E-15	-6.25E-16	1.31E-15	-9.21E-05	-3.87E-05	-1.31E-04	-8.65E-05	-4.39E-05	-1.30E-04	4.00E-06	-3.86E-06	1.38E-07	4.65E-10	8.25E-06	8.25E-06	3.44E-06	6.70E-06	1.01E-05	8.30E-06	5.06E-06	1.34E-05	-1.29E-06	8.42E-06	7.14E-06	6.85E-06	-2.18E-06	4.67E-06	1.50E-05	-1.36E-05	1.50E-06	-5.82E-05	-3.04E-05	-8.86E-05	2.84E-16	-3.48E-16	-6.39E-17	-6.49E-05	-4.08E-05	-1.06E-04	-9.59E-05	-3.60E-05	-1.32E-04	-4.55E-05	-1.62E-05	-6.16E-05	5.58E-06	4.69E-06	1.03E-05	1.40E-05	4.65E-07	1.45E-05	2.03E-05	6.18E-06	2.65E-05	-5.35E-06	4.52E-06	-8.33E-07	2.28E-05	4.85E-06	2.77E-05	2.41E-06	-1.68E-05	-1.44E-05	-1.37E-05	-1.88E-05	-3.25E-05	1.40E-15	5.83E-16	1.98E-15	-7.19E-06	-1.13E-05	-1.85E-05	-2.78E-06	-1.41E-05	-1.68E-05	8.34E-06	2.81E-07	8.62E-06	3.01E-08	5.31E-06	5.34E-06	1.76E-06	2.04E-06	3.79E-06	-2.91E-06	2.16E-06	-7.45E-07	-1.90E-06	3.42E-06	1.52E-06	7.28E-06	-1.28E-06	5.99E-06	1
-1.84	1.24E-05	-2.40E-05	-1.16E-05	-9.92E-05	-5.61E-05	-1.55E-04	-8.35E-18	1.10E-16	1.01E-16	-1.83E-04	-1.19E-04	-3.02E-04	-8.40E-05	-7.33E-05	-1.57E-04	-4.38E-05	-5.52E-05	-9.90E-05	1.57E-05	3.99E-06	1.97E-05	3.79E-05	6.59E-07	3.86E-05	3.69E-05	9.66E-06	4.66E-05	3.48E-05	1.59E-06	3.63E-05	7.97E-05	1.45E-05	9.42E-05	-5.07E-05	-4.17E-05	-9.24E-05	-7.97E-05	-4.47E-05	-1.24E-04	1.88E-15	-6.25E-16	1.25E-15	-8.80E-05	-3.59E-05	-1.24E-04	-8.61E-05	-4.18E-05	-1.28E-04	6.27E-06	-2.33E-06	3.95E-06	2.32E-07	8.49E-06	8.72E-06	3.38E-06	6.10E-06	9.47E-06	7.17E-06	4.75E-06	1.19E-05	-1.34E-06	7.79E-06	6.45E-06	5.27E-06	-3.00E-06	2.27E-06	1.38E-05	-1.15E-05	2.33E-06	-5.53E-05	-2.84E-05	-8.37E-05	2.90E-16	-3.50E-16	-6.00E-17	-5.85E-05	-3.63E-05	-9.48E-05	-9.02E-05	-3.40E-05	-1.24E-04	-4.33E-05	-1.56E-05	-5.88E-05	4.94E-06	4.11E-06	9.05E-06	1.28E-05	6.42E-07	1.35E-05	1.78E-05	5.54E-06	2.34E-05	-5.87E-06	4.95E-06	-9.13E-07	2.08E-05	4.36E-06	2.52E-05	3.20E-06	-1.35E-05	-1.03E-05	-1.32E-05	-1.69E-05	-3.01E-05	1.39E-15	5.73E-16	1.96E-15	-7.41E-06	-1.00E-05	-1.74E-05	-3.68E-06	-1.26E-05	-1.63E-05	6.72E-06	4.82E-08	6.77E-06	-8.99E-07	5.08E-06	4.18E-06	9.73E-07	2.00E-06	2.97E-06	-3.12E-06	2.07E-06	-1.04E-06	-2.15E-06	3.25E-06	1.10E-06	6.50E-06	-1.30E-06	5.19E-06	1
-1.8	1.20E-05	-1.96E-05	-7.65E-06	-1.01E-04	-5.36E-05	-1.54E-04	-1.59E-17	1.14E-16	9.83E-17	-1.83E-04	-1.15E-04	-2.99E-04	-8.91E-05	-7.15E-05	-1.61E-04	-4.72E-05	-5.48E-05	-1.02E-04	1.27E-05	4.68E-06	1.74E-05	3.47E-05	5.10E-08	3.48E-05	3.55E-05	9.58E-06	4.51E-05	3.10E-05	8.09E-07	3.19E-05	7.78E-05	1.42E-05	9.20E-05	-5.28E-05	-4.07E-05	-9.35E-05	-8.07E-05	-4.24E-05	-1.23E-04	1.81E-15	-6.21E-16	1.19E-15	-8.37E-05	-3.30E-05	-1.17E-04	-8.55E-05	-3.95E-05	-1.25E-04	8.41E-06	-8.71E-07	7.54E-06	4.48E-07	8.69E-06	9.14E-06	3.30E-06	5.49E-06	8.79E-06	6.07E-06	4.44E-06	1.05E-05	-1.40E-06	7.15E-06	5.75E-06	3.75E-06	-3.78E-06	-2.89E-08	1.27E-05	-9.54E-06	3.12E-06	-5.22E-05	-2.65E-05	-7.87E-05	2.94E-16	-3.49E-16	-5.57E-17	-5.23E-05	-3.19E-05	-8.42E-05	-8.45E-05	-3.20E-05	-1.16E-04	-4.10E-05	-1.50E-05	-5.60E-05	4.31E-06	3.55E-06	7.86E-06	1.17E-05	8.06E-07	1.25E-05	1.54E-05	4.92E-06	2.03E-05	-6.33E-06	5.35E-06	-9.88E-07	1.88E-05	3.87E-06	2.27E-05	3.95E-06	-1.03E-05	-6.33E-06	-1.27E-05	-1.51E-05	-2.77E-05	1.37E-15	5.59E-16	1.93E-15	-7.59E-06	-8.77E-06	-1.64E-05	-4.53E-06	-1.13E-05	-1.58E-05	5.15E-06	-1.80E-07	4.97E-06	-1.79E-06	4.84E-06	3.05E-06	2.17E-07	1.96E-06	2.18E-06	-3.30E-06	1.98E-06	-1.33E-06	-2.39E-06	3.08E-06	6.92E-07	5.71E-06	-1.31E-06	4.40E-06	1
-1.76	1.15E-05	-1.54E-05	-3.89E-06	-1.02E-04	-5.10E-05	-1.53E-04	-2.32E-17	1.18E-16	9.48E-17	-1.83E-04	-1.11E-04	-2.94E-04	-9.36E-05	-6.97E-05	-1.63E-04	-5.04E-05	-5.42E-05	-1.05E-04	9.84E-06	5.32E-06	1.52E-05	3.15E-05	-5.28E-07	3.10E-05	3.41E-05	9.46E-06	4.35E-05	2.74E-05	6.65E-08	2.75E-05	7.58E-05	1.38E-05	8.96E-05	-5.47E-05	-3.96E-05	-9.43E-05	-8.13E-05	-4.01E-05	-1.21E-04	1.73E-15	-6.14E-16	1.12E-15	-7.94E-05	-3.02E-05	-1.10E-04	-8.46E-05	-3.73E-05	-1.22E-04	1.04E-05	5.05E-07	1.09E-05	6.49E-07	8.85E-06	9.50E-06	3.22E-06	4.90E-06	8.12E-06	4.99E-06	4.13E-06	9.13E-06	-1.45E-06	6.51E-06	5.06E-06	2.28E-06	-4.50E-06	-2.22E-06	1.15E-05	-7.61E-06	3.86E-06	-4.92E-05	-2.45E-05	-7.37E-05	2.97E-16	-3.48E-16	-5.10E-17	-4.62E-05	-2.77E-05	-7.39E-05	-7.87E-05	-3.00E-05	-1.09E-04	-3.88E-05	-1.43E-05	-5.31E-05	3.70E-06	2.99E-06	6.68E-06	1.05E-05	9.55E-07	1.14E-05	1.31E-05	4.31E-06	1.74E-05	-6.75E-06	5.69E-06	-1.06E-06	1.69E-05	3.38E-06	2.02E-05	4.67E-06	-7.20E-06	-2.53E-06	-1.21E-05	-1.33E-05	-2.54E-05	1.35E-15	5.43E-16	1.89E-15	-7.73E-06	-7.57E-06	-1.53E-05	-5.34E-06	-9.91E-06	-1.52E-05	3.63E-06	-4.01E-07	3.23E-06	-2.63E-06	4.59E-06	1.96E-06	-5.07E-07	1.91E-06	1.41E-06	-3.47E-06	1.88E-06	-1.59E-06	-2.62E-06	2.91E-06	2.89E-07	4.93E-06	-1.31E-06	3.63E-06	1
-1.72	1.10E-05	-1.13E-05	-3.37E-07	-1.02E-04	-4.85E-05	-1.51E-04	-3.04E-17	1.22E-16	9.12E-17	-1.82E-04	-1.07E-04	-2.89E-04	-9.76E-05	-6.77E-05	-1.65E-04	-5.32E-05	-5.34E-05	-1.07E-04	7.04E-06	5.89E-06	1.29E-05	2.84E-05	-1.07E-06	2.73E-05	3.26E-05	9.32E-06	4.19E-05	2.38E-05	-6.36E-07	2.32E-05	7.35E-05	1.34E-05	8.70E-05	-5.62E-05	-3.83E-05	-9.45E-05	-8.16E-05	-3.77E-05	-1.19E-04	1.64E-15	-6.03E-16	1.04E-15	-7.49E-05	-2.75E-05	-1.02E-04	-8.34E-05	-3.50E-05	-1.18E-04	1.22E-05	1.79E-06	1.40E-05	8.33E-07	8.95E-06	9.78E-06	3.14E-06	4.31E-06	7.45E-06	3.95E-06	3.82E-06	7.77E-06	-1.50E-06	5.88E-06	4.38E-06	8.86E-07	-5.17E-06	-4.28E-06	1.03E-05	-5.76E-06	4.56E-06	-4.61E-05	-2.26E-05	-6.87E-05	2.99E-16	-3.45E-16	-4.59E-17	-4.02E-05	-2.35E-05	-6.37E-05	-7.29E-05	-2.79E-05	-1.01E-04	-3.65E-05	-1.37E-05	-5.02E-05	3.10E-06	2.44E-06	5.54E-06	9.34E-06	1.09E-06	1.04E-05	1.08E-05	3.71E-06	1.45E-05	-7.11E-06	5.99E-06	-1.12E-06	1.49E-05	2.91E-06	1.78E-05	5.35E-06	-4.23E-06	1.11E-06	-1.16E-05	-1.15E-05	-2.31E-05	1.32E-15	5.23E-16	1.85E-15	-7.83E-06	-6.40E-06	-1.42E-05	-6.09E-06	-8.61E-06	-1.47E-05	2.17E-06	-6.15E-07	1.55E-06	-3.43E-06	4.34E-06	9.13E-07	-1.20E-06	1.86E-06	6.66E-07	-3.62E-06	1.78E-06	-1.85E-06	-2.84E-06	2.73E-06	-1.04E-07	4.16E-06	-1.29E-06	2.87E-06	1
-1.68	1.04E-05	-7.43E-06	2.99E-06	-1.02E-04	-4.58E-05	-1.48E-04	-3.74E-17	1.25E-16	8.72E-17	-1.80E-04	-1.03E-04	-2.83E-04	-1.01E-04	-6.56E-05	-1.67E-04	-5.56E-05	-5.25E-05	-1.08E-04	4.35E-06	6.38E-06	1.07E-05	2.53E-05	-1.59E-06	2.37E-05	3.10E-05	9.13E-06	4.01E-05	2.03E-05	-1.30E-06	1.90E-05	7.11E-05	1.30E-05	8.41E-05	-5.74E-05	-3.69E-05	-9.44E-05	-8.15E-05	-3.53E-05	-1.17E-04	1.55E-15	-5.88E-16	9.61E-16	-7.04E-05	-2.47E-05	-9.52E-05	-8.18E-05	-3.27E-05	-1.15E-04	1.38E-05	2.99E-06	1.68E-05	9.98E-07	9.00E-06	1.00E-05	3.05E-06	3.73E-06	6.78E-06	2.94E-06	3.51E-06	6.46E-06	-1.54E-06	5.25E-06	3.70E-06	-4.36E-07	-5.78E-06	-6.22E-06	9.19E-06	-3.98E-06	5.21E-06	-4.30E-05	-2.07E-05	-6.37E-05	3.00E-16	-3.40E-16	-4.04E-17	-3.44E-05	-1.95E-05	-5.39E-05	-6.72E-05	-2.59E-05	-9.31E-05	-3.42E-05	-1.30E-05	-4.72E-05	2.52E-06	1.91E-06	4.43E-06	8.22E-06	1.21E-06	9.43E-06	8.55E-06	3.14E-06	1.17E-05	-7.42E-06	6.24E-06	-1.18E-06	1.30E-05	2.44E-06	1.55E-05	5.98E-06	-1.41E-06	4.57E-06	-1.10E-05	-9.82E-06	-2.08E-05	1.29E-15	5.01E-16	1.79E-15	-7.90E-06	-5.28E-06	-1.32E-05	-6.78E-06	-7.34E-06	-1.41E-05	7.61E-07	-8.20E-07	-5.88E-08	-4.17E-06	4.09E-06	-8.50E-08	-1.85E-06	1.80E-06	-4.30E-08	-3.75E-06	1.67E-06	-2.08E-06	-3.04E-06	2.55E-06	-4.83E-07	3.40E-06	-1.26E-06	2.14E-06	1
-1.64	9.83E-06	-3.75E-06	6.09E-06	-1.02E-04	-4.31E-05	-1.45E-04	-4.40E-17	1.27E-16	8.30E-17	-1.77E-04	-9.86E-05	-2.76E-04	-1.04E-04	-6.33E-05	-1.67E-04	-5.77E-05	-5.14E-05	-1.09E-04	1.77E-06	6.79E-06	8.57E-06	2.23E-05	-2.06E-06	2.03E-05	2.94E-05	8.91E-06	3.83E-05	1.69E-05	-1.91E-06	1.50E-05	6.84E-05	1.25E-05	8.10E-05	-5.82E-05	-3.54E-05	-9.37E-05	-8.09E-05	-3.29E-05	-1.14E-04	1.45E-15	-5.70E-16	8.78E-16	-6.58E-05	-2.20E-05	-8.78E-05	-8.00E-05	-3.04E-05	-1.10E-04	1.53E-05	4.08E-06	1.93E-05	1.15E-06	9.00E-06	1.01E-05	2.95E-06	3.17E-06	6.12E-06	1.97E-06	3.21E-06	5.18E-06	-1.59E-06	4.62E-06	3.03E-06	-1.68E-06	-6.33E-06	-8.01E-06	8.08E-06	-2.29E-06	5.79E-06	-3.99E-05	-1.88E-05	-5.87E-05	3.00E-16	-3.34E-16	-3.46E-17	-2.88E-05	-1.56E-05	-4.44E-05	-6.14E-05	-2.38E-05	-8.53E-05	-3.19E-05	-1.23E-05	-4.43E-05	1.96E-06	1.39E-06	3.35E-06	7.12E-06	1.31E-06	8.43E-06	6.42E-06	2.58E-06	9.00E-06	-7.67E-06	6.43E-06	-1.24E-06	1.12E-05	1.98E-06	1.32E-05	6.56E-06	1.26E-06	7.81E-06	-1.04E-05	-8.17E-06	-1.86E-05	1.25E-15	4.76E-16	1.72E-15	-7.92E-06	-4.20E-06	-1.21E-05	-7.41E-06	-6.12E-06	-1.35E-05	-5.76E-07	-1.01E-06	-1.59E-06	-4.85E-06	3.82E-06	-1.03E-06	-2.45E-06	1.74E-06	-7.16E-07	-3.85E-06	1.56E-06	-2.29E-06	-3.22E-06	2.37E-06	-8.48E-07	2.64E-06	-1.21E-06	1.43E-06	1
-1.6	9.20E-06	-2.75E-07	8.93E-06	-1.01E-04	-4.04E-05	-1.41E-04	-5.04E-17	1.29E-16	7.86E-17	-1.74E-04	-9.38E-05	-2.68E-04	-1.06E-04	-6.08E-05	-1.67E-04	-5.93E-05	-5.01E-05	-1.09E-04	-6.68E-07	7.13E-06	6.46E-06	1.94E-05	-2.50E-06	1.69E-05	2.77E-05	8.65E-06	3.64E-05	1.36E-05	-2.48E-06	1.12E-05	6.55E-05	1.21E-05	7.76E-05	-5.87E-05	-3.38E-05	-9.25E-05	-8.00E-05	-3.05E-05	-1.10E-04	1.34E-15	-5.48E-16	7.90E-16	-6.11E-05	-1.94E-05	-8.05E-05	-7.79E-05	-2.81E-05	-1.06E-04	1.65E-05	5.07E-06	2.16E-05	1.27E-06	8.93E-06	1.02E-05	2.85E-06	2.62E-06	5.47E-06	1.05E-06	2.90E-06	3.95E-06	-1.63E-06	4.00E-06	2.37E-06	-2.83E-06	-6.81E-06	-9.64E-06	7.00E-06	-6.80E-07	6.32E-06	-3.67E-05	-1.70E-05	-5.37E-05	2.98E-16	-3.27E-16	-2.85E-17	-2.34E-05	-1.19E-05	-3.53E-05	-5.57E-05	-2.18E-05	-7.75E-05	-2.96E-05	-1.16E-05	-4.13E-05	1.43E-06	8.90E-07	2.32E-06	6.05E-06	1.39E-06	7.44E-06	4.38E-06	2.05E-06	6.43E-06	-7.86E-06	6.57E-06	-1.28E-06	9.42E-06	1.54E-06	1.10E-05	7.09E-06	3.76E-06	1.08E-05	-9.85E-06	-6.59E-06	-1.64E-05	1.20E-15	4.48E-16	1.65E-15	-7.89E-06	-3.18E-06	-1.11E-05	-7.98E-06	-4.95E-06	-1.29E-05	-1.84E-06	-1.20E-06	-3.04E-06	-5.48E-06	3.56E-06	-1.92E-06	-3.02E-06	1.67E-06	-1.35E-06	-3.93E-06	1.44E-06	-2.49E-06	-3.39E-06	2.19E-06	-1.20E-06	1.90E-06	-1.16E-06	7.44E-07	1
-1.56	8.53E-06	2.97E-06	1.15E-05	-9.95E-05	-3.77E-05	-1.37E-04	-5.64E-17	1.30E-16	7.38E-17	-1.70E-04	-8.88E-05	-2.59E-04	-1.07E-04	-5.82E-05	-1.65E-04	-6.05E-05	-4.86E-05	-1.09E-04	-2.97E-06	7.38E-06	4.42E-06	1.65E-05	-2.89E-06	1.36E-05	2.60E-05	8.36E-06	3.44E-05	1.05E-05	-2.99E-06	7.50E-06	6.24E-05	1.15E-05	7.40E-05	-5.87E-05	-3.21E-05	-9.09E-05	-7.86E-05	-2.80E-05	-1.07E-04	1.22E-15	-5.23E-16	6.99E-16	-5.64E-05	-1.68E-05	-7.32E-05	-7.55E-05	-2.58E-05	-1.01E-04	1.75E-05	5.95E-06	2.35E-05	1.38E-06	8.81E-06	1.02E-05	2.74E-06	2.09E-06	4.83E-06	1.74E-07	2.59E-06	2.77E-06	-1.66E-06	3.40E-06	1.73E-06	-3.89E-06	-7.23E-06	-1.11E-05	5.96E-06	8.30E-07	6.79E-06	-3.36E-05	-1.51E-05	-4.87E-05	2.95E-16	-3.17E-16	-2.21E-17	-1.82E-05	-8.33E-06	-2.65E-05	-5.01E-05	-1.98E-05	-6.98E-05	-2.73E-05	-1.09E-05	-3.82E-05	9.15E-07	4.10E-07	1.32E-06	5.01E-06	1.46E-06	6.47E-06	2.45E-06	1.54E-06	3.98E-06	-7.98E-06	6.66E-06	-1.32E-06	7.70E-06	1.11E-06	8.80E-06	7.56E-06	6.08E-06	1.36E-05	-9.25E-06	-5.08E-06	-1.43E-05	1.14E-15	4.17E-16	1.56E-15	-7.83E-06	-2.20E-06	-1.00E-05	-8.47E-06	-3.84E-06	-1.23E-05	-3.02E-06	-1.37E-06	-4.39E-06	-6.03E-06	3.29E-06	-2.74E-06	-3.53E-06	1.59E-06	-1.94E-06	-3.98E-06	1.33E-06	-2.66E-06	-3.53E-06	2.01E-06	-1.53E-06	1.18E-06	-1.09E-06	8.97E-08	1
-1.52	7.83E-06	5.97E-06	1.38E-05	-9.75E-05	-3.49E-05	-1.32E-04	-6.20E-17	1.31E-16	6.89E-17	-1.65E-04	-8.36E-05	-2.49E-04	-1.08E-04	-5.54E-05	-1.63E-04	-6.13E-05	-4.69E-05	-1.08E-04	-5.11E-06	7.55E-06	2.44E-06	1.38E-05	-3.24E-06	1.05E-05	2.42E-05	8.02E-06	3.23E-05	7.46E-06	-3.45E-06	4.01E-06	5.91E-05	1.10E-05	7.01E-05	-5.84E-05	-3.03E-05	-8.87E-05	-7.67E-05	-2.55E-05	-1.02E-04	1.10E-15	-4.94E-16	6.04E-16	-5.16E-05	-1.43E-05	-6.58E-05	-7.27E-05	-2.34E-05	-9.61E-05	1.83E-05	6.71E-06	2.50E-05	1.46E-06	8.63E-06	1.01E-05	2.63E-06	1.58E-06	4.20E-06	-6.51E-07	2.29E-06	1.64E-06	-1.69E-06	2.80E-06	1.11E-06	-4.86E-06	-7.57E-06	-1.24E-05	4.95E-06	2.24E-06	7.19E-06	-3.04E-05	-1.33E-05	-4.38E-05	2.91E-16	-3.06E-16	-1.55E-17	-1.32E-05	-4.98E-06	-1.82E-05	-4.45E-05	-1.77E-05	-6.22E-05	-2.50E-05	-1.02E-05	-3.52E-05	4.30E-07	-4.87E-08	3.82E-07	4.01E-06	1.51E-06	5.52E-06	6.16E-07	1.05E-06	1.67E-06	-8.03E-06	6.68E-06	-1.35E-06	6.04E-06	6.90E-07	6.73E-06	7.97E-06	8.22E-06	1.62E-05	-8.63E-06	-3.65E-06	-1.23E-05	1.08E-15	3.83E-16	1.47E-15	-7.71E-06	-1.28E-06	-8.99E-06	-8.89E-06	-2.78E-06	-1.17E-05	-4.12E-06	-1.53E-06	-5.65E-06	-6.52E-06	3.01E-06	-3.51E-06	-3.99E-06	1.51E-06	-2.49E-06	-4.01E-06	1.21E-06	-2.80E-06	-3.66E-06	1.82E-06	-1.84E-06	4.75E-07	-1.01E-06	-5.32E-07	1
-1.48	7.10E-06	8.71E-06	1.58E-05	-9.50E-05	-3.20E-05	-1.27E-04	-6.71E-17	1.31E-16	6.37E-17	-1.59E-04	-7.82E-05	-2.37E-04	-1.08E-04	-5.25E-05	-1.60E-04	-6.16E-05	-4.50E-05	-1.07E-04	-7.10E-06	7.63E-06	5.33E-07	1.11E-05	-3.54E-06	7.57E-06	2.24E-05	7.65E-06	3.01E-05	4.57E-06	-3.85E-06	7.27E-07	5.56E-05	1.04E-05	6.60E-05	-5.76E-05	-2.84E-05	-8.60E-05	-7.44E-05	-2.30E-05	-9.74E-05	9.68E-16	-4.61E-16	5.06E-16	-4.67E-05	-1.18E-05	-5.85E-05	-6.96E-05	-2.11E-05	-9.07E-05	1.89E-05	7.35E-06	2.63E-05	1.53E-06	8.40E-06	9.92E-06	2.50E-06	1.09E-06	3.59E-06	-1.42E-06	2.00E-06	5.74E-07	-1.72E-06	2.22E-06	5.00E-07	-5.72E-06	-7.84E-06	-1.36E-05	3.98E-06	3.53E-06	7.52E-06	-2.73E-05	-1.16E-05	-3.89E-05	2.85E-16	-2.94E-16	-8.66E-18	-8.51E-06	-1.82E-06	-1.03E-05	-3.89E-05	-1.57E-05	-5.47E-05	-2.27E-05	-9.42E-06	-3.21E-05	-2.56E-08	-4.84E-07	-5.09E-07	3.05E-06	1.54E-06	4.58E-06	-1.10E-06	5.95E-07	-5.04E-07	-8.02E-06	6.65E-06	-1.38E-06	4.44E-06	2.92E-07	4.74E-06	8.31E-06	1.02E-05	1.85E-05	-8.01E-06	-2.29E-06	-1.03E-05	1.02E-15	3.47E-16	1.36E-15	-7.55E-06	-4.16E-07	-7.96E-06	-9.24E-06	-1.79E-06	-1.10E-05	-5.13E-06	-1.68E-06	-6.80E-06	-6.93E-06	2.73E-06	-4.20E-06	-4.40E-06	1.41E-06	-2.99E-06	-4.01E-06	1.08E-06	-2.92E-06	-3.76E-06	1.63E-06	-2.12E-06	-2.04E-07	-9.15E-07	-1.12E-06	1
-1.44	6.33E-06	1.12E-05	1.75E-05	-9.20E-05	-2.92E-05	-1.21E-04	-7.17E-17	1.30E-16	5.83E-17	-1.53E-04	-7.26E-05	-2.25E-04	-1.07E-04	-4.94E-05	-1.56E-04	-6.14E-05	-4.30E-05	-1.04E-04	-8.92E-06	7.63E-06	-1.29E-06	8.55E-06	-3.79E-06	4.76E-06	2.06E-05	7.24E-06	2.78E-05	1.84E-06	-4.19E-06	-2.35E-06	5.19E-05	9.75E-06	6.17E-05	-5.64E-05	-2.63E-05	-8.27E-05	-7.17E-05	-2.05E-05	-9.22E-05	8.31E-16	-4.25E-16	4.06E-16	-4.18E-05	-9.41E-06	-5.12E-05	-6.62E-05	-1.88E-05	-8.50E-05	1.93E-05	7.88E-06	2.72E-05	1.57E-06	8.10E-06	9.67E-06	2.38E-06	6.14E-07	2.99E-06	-2.13E-06	1.70E-06	-4.31E-07	-1.74E-06	1.65E-06	-8.42E-08	-6.48E-06	-8.03E-06	-1.45E-05	3.05E-06	4.72E-06	7.77E-06	-2.42E-05	-9.86E-06	-3.41E-05	2.78E-16	-2.79E-16	-1.67E-18	-4.07E-06	1.13E-06	-2.93E-06	-3.35E-05	-1.38E-05	-4.72E-05	-2.04E-05	-8.66E-06	-2.91E-05	-4.52E-07	-8.93E-07	-1.34E-06	2.13E-06	1.55E-06	3.67E-06	-2.69E-06	1.66E-07	-2.53E-06	-7.94E-06	6.55E-06	-1.39E-06	2.93E-06	-8.74E-08	2.84E-06	8.59E-06	1.19E-05	2.05E-05	-7.37E-06	-1.02E-06	-8.39E-06	9.41E-16	3.08E-16	1.25E-15	-7.33E-06	3.84E-07	-6.95E-06	-9.50E-06	-8.66E-07	-1.04E-05	-6.04E-06	-1.81E-06	-7.85E-06	-7.27E-06	2.45E-06	-4.82E-06	-4.76E-06	1.32E-06	-3.44E-06	-3.98E-06	9.58E-07	-3.02E-06	-3.83E-06	1.45E-06	-2.39E-06	-8.58E-07	-8.12E-07	-1.67E-06	1
-1.4	5.53E-06	1.34E-05	1.89E-05	-8.84E-05	-2.63E-05	-1.15E-04	-7.58E-17	1.28E-16	5.27E-17	-1.45E-04	-6.68E-05	-2.12E-04	-1.05E-04	-4.61E-05	-1.51E-04	-6.08E-05	-4.07E-05	-1.01E-04	-1.06E-05	7.54E-06	-3.02E-06	6.11E-06	-4.00E-06	2.11E-06	1.87E-05	6.80E-06	2.55E-05	-7.25E-07	-4.47E-06	-5.20E-06	4.80E-05	9.09E-06	5.71E-05	-5.48E-05	-2.42E-05	-7.89E-05	-6.85E-05	-1.80E-05	-8.64E-05	6.90E-16	-3.86E-16	3.04E-16	-3.69E-05	-7.11E-06	-4.40E-05	-6.25E-05	-1.64E-05	-7.89E-05	1.94E-05	8.28E-06	2.77E-05	1.59E-06	7.74E-06	9.33E-06	2.24E-06	1.66E-07	2.41E-06	-2.78E-06	1.41E-06	-1.37E-06	-1.75E-06	1.10E-06	-6.44E-07	-7.13E-06	-8.14E-06	-1.53E-05	2.17E-06	5.78E-06	7.95E-06	-2.11E-05	-8.19E-06	-2.93E-05	2.69E-16	-2.63E-16	5.43E-18	1.00E-07	3.87E-06	3.97E-06	-2.81E-05	-1.18E-05	-3.99E-05	-1.81E-05	-7.88E-06	-2.60E-05	-8.47E-07	-1.28E-06	-2.12E-06	1.25E-06	1.54E-06	2.79E-06	-4.16E-06	-2.32E-07	-4.40E-06	-7.79E-06	6.40E-06	-1.40E-06	1.48E-06	-4.46E-07	1.04E-06	8.79E-06	1.34E-05	2.22E-05	-6.72E-06	1.67E-07	-6.55E-06	8.61E-16	2.67E-16	1.13E-15	-7.07E-06	1.12E-06	-5.95E-06	-9.68E-06	-6.23E-09	-9.68E-06	-6.85E-06	-1.92E-06	-8.77E-06	-7.53E-06	2.17E-06	-5.36E-06	-5.05E-06	1.22E-06	-3.84E-06	-3.92E-06	8.30E-07	-3.09E-06	-3.89E-06	1.26E-06	-2.63E-06	-1.48E-06	-6.98E-07	-2.18E-06	1
-1.36	4.71E-06	1.53E-05	2.00E-05	-8.43E-05	-2.34E-05	-1.08E-04	-7.93E-17	1.26E-16	4.69E-17	-1.37E-04	-6.07E-05	-1.98E-04	-1.02E-04	-4.27E-05	-1.45E-04	-5.97E-05	-3.82E-05	-9.79E-05	-1.20E-05	7.36E-06	-4.65E-06	3.78E-06	-4.15E-06	-3.70E-07	1.67E-05	6.31E-06	2.30E-05	-3.13E-06	-4.69E-06	-7.82E-06	4.39E-05	8.39E-06	5.23E-05	-5.27E-05	-2.19E-05	-7.46E-05	-6.49E-05	-1.54E-05	-8.03E-05	5.45E-16	-3.44E-16	2.00E-16	-3.19E-05	-4.89E-06	-3.68E-05	-5.84E-05	-1.41E-05	-7.25E-05	1.93E-05	8.55E-06	2.79E-05	1.59E-06	7.32E-06	8.91E-06	2.10E-06	-2.58E-07	1.85E-06	-3.37E-06	1.13E-06	-2.24E-06	-1.75E-06	5.71E-07	-1.18E-06	-7.66E-06	-8.17E-06	-1.58E-05	1.32E-06	6.73E-06	8.05E-06	-1.80E-05	-6.57E-06	-2.46E-05	2.58E-16	-2.46E-16	1.26E-17	3.98E-06	6.38E-06	1.04E-05	-2.29E-05	-9.87E-06	-3.28E-05	-1.58E-05	-7.09E-06	-2.29E-05	-1.21E-06	-1.63E-06	-2.84E-06	4.22E-07	1.51E-06	1.93E-06	-5.50E-06	-6.00E-07	-6.10E-06	-7.58E-06	6.18E-06	-1.39E-06	1.25E-07	-7.84E-07	-6.59E-07	8.92E-06	1.47E-05	2.36E-05	-6.06E-06	1.26E-06	-4.80E-06	7.75E-16	2.24E-16	9.99E-16	-6.76E-06	1.79E-06	-4.97E-06	-9.77E-06	7.85E-07	-8.98E-06	-7.57E-06	-2.02E-06	-9.58E-06	-7.71E-06	1.88E-06	-5.83E-06	-5.29E-06	1.11E-06	-4.18E-06	-3.83E-06	7.01E-07	-3.13E-06	-3.91E-06	1.07E-06	-2.84E-06	-2.07E-06	-5.75E-07	-2.65E-06	1
-1.32	3.87E-06	1.70E-05	2.08E-05	-7.96E-05	-2.05E-05	-1.00E-04	-8.21E-17	1.23E-16	4.09E-17	-1.28E-04	-5.45E-05	-1.83E-04	-9.92E-05	-3.92E-05	-1.38E-04	-5.80E-05	-3.56E-05	-9.36E-05	-1.33E-05	7.10E-06	-6.18E-06	1.58E-06	-4.25E-06	-2.68E-06	1.48E-05	5.79E-06	2.06E-05	-5.35E-06	-4.85E-06	-1.02E-05	3.96E-05	7.66E-06	4.73E-05	-5.03E-05	-1.96E-05	-6.98E-05	-6.08E-05	-1.29E-05	-7.37E-05	3.96E-16	-3.00E-16	9.63E-17	-2.69E-05	-2.77E-06	-2.97E-05	-5.40E-05	-1.18E-05	-6.59E-05	1.90E-05	8.70E-06	2.77E-05	1.57E-06	6.84E-06	8.41E-06	1.96E-06	-6.56E-07	1.30E-06	-3.90E-06	8.55E-07	-3.04E-06	-1.74E-06	6.06E-08	-1.68E-06	-8.09E-06	-8.12E-06	-1.62E-05	5.29E-07	7.55E-06	8.08E-06	-1.50E-05	-5.00E-06	-2.00E-05	2.46E-16	-2.26E-16	1.97E-17	7.55E-06	8.66E-06	1.62E-05	-1.78E-05	-7.97E-06	-2.57E-05	-1.36E-05	-6.29E-06	-1.98E-05	-1.54E-06	-1.95E-06	-3.49E-06	-3.58E-07	1.47E-06	1.11E-06	-6.71E-06	-9.37E-07	-7.64E-06	-7.29E-06	5.91E-06	-1.38E-06	-1.15E-06	-1.10E-06	-2.25E-06	8.98E-06	1.58E-05	2.48E-05	-5.39E-06	2.27E-06	-3.12E-06	6.84E-16	1.79E-16	8.63E-16	-6.41E-06	2.39E-06	-4.01E-06	-9.77E-06	1.51E-06	-8.27E-06	-8.17E-06	-2.09E-06	-1.03E-05	-7.82E-06	1.60E-06	-6.22E-06	-5.46E-06	9.93E-07	-4.47E-06	-3.72E-06	5.70E-07	-3.15E-06	-3.91E-06	8.84E-07	-3.03E-06	-2.63E-06	-4.44E-07	-3.07E-06	1
-1.28	3.00E-06	1.83E-05	2.13E-05	-7.44E-05	-1.76E-05	-9.20E-05	-8.42E-17	1.19E-16	3.47E-17	-1.18E-04	-4.81E-05	-1.67E-04	-9.51E-05	-3.55E-05	-1.31E-04	-5.59E-05	-3.27E-05	-8.87E-05	-1.44E-05	6.76E-06	-7.60E-06	-5.02E-07	-4.31E-06	-4.81E-06	1.28E-05	5.24E-06	1.80E-05	-7.39E-06	-4.94E-06	-1.23E-05	3.51E-05	6.90E-06	4.20E-05	-4.74E-05	-1.71E-05	-6.45E-05	-5.63E-05	-1.04E-05	-6.67E-05	2.45E-16	-2.53E-16	-7.78E-18	-2.20E-05	-7.50E-07	-2.27E-05	-4.94E-05	-9.54E-06	-5.89E-05	1.85E-05	8.73E-06	2.72E-05	1.53E-06	6.31E-06	7.84E-06	1.80E-06	-1.03E-06	7.78E-07	-4.35E-06	5.85E-07	-3.77E-06	-1.72E-06	-4.27E-07	-2.15E-06	-8.40E-06	-7.99E-06	-1.64E-05	-2.20E-07	8.24E-06	8.02E-06	-1.20E-05	-3.48E-06	-1.54E-05	2.32E-16	-2.06E-16	2.67E-17	1.08E-05	1.07E-05	2.15E-05	-1.28E-05	-6.11E-06	-1.89E-05	-1.13E-05	-5.48E-06	-1.68E-05	-1.83E-06	-2.24E-06	-4.08E-06	-1.09E-06	1.40E-06	3.13E-07	-7.77E-06	-1.24E-06	-9.02E-06	-6.94E-06	5.58E-06	-1.36E-06	-2.34E-06	-1.39E-06	-3.73E-06	8.96E-06	1.66E-05	2.56E-05	-4.72E-06	3.18E-06	-1.54E-06	5.88E-16	1.33E-16	7.21E-16	-6.00E-06	2.93E-06	-3.07E-06	-9.69E-06	2.16E-06	-7.53E-06	-8.67E-06	-2.15E-06	-1.08E-05	-7.84E-06	1.31E-06	-6.53E-06	-5.57E-06	8.74E-07	-4.70E-06	-3.57E-06	4.38E-07	-3.14E-06	-3.88E-06	6.99E-07	-3.18E-06	-3.14E-06	-3.07E-07	-3.45E-06	1
-1.24	2.13E-06	1.94E-05	2.15E-05	-6.87E-05	-1.46E-05	-8.33E-05	-8.56E-17	1.14E-16	2.84E-17	-1.08E-04	-4.15E-05	-1.50E-04	-9.02E-05	-3.16E-05	-1.22E-04	-5.34E-05	-2.97E-05	-8.31E-05	-1.52E-05	6.33E-06	-8.89E-06	-2.45E-06	-4.31E-06	-6.76E-06	1.07E-05	4.66E-06	1.54E-05	-9.25E-06	-4.98E-06	-1.42E-05	3.05E-05	6.10E-06	3.66E-05	-4.41E-05	-1.46E-05	-5.87E-05	-5.13E-05	-7.97E-06	-5.93E-05	9.23E-17	-2.03E-16	-1.11E-16	-1.70E-05	1.17E-06	-1.58E-05	-4.44E-05	-7.29E-06	-5.17E-05	1.77E-05	8.64E-06	2.64E-05	1.46E-06	5.73E-06	7.19E-06	1.65E-06	-1.37E-06	2.76E-07	-4.74E-06	3.23E-07	-4.42E-06	-1.69E-06	-8.90E-07	-2.59E-06	-8.60E-06	-7.78E-06	-1.64E-05	-9.21E-07	8.81E-06	7.89E-06	-9.00E-06	-2.02E-06	-1.10E-05	2.17E-16	-1.83E-16	3.35E-17	1.38E-05	1.25E-05	2.63E-05	-7.90E-06	-4.29E-06	-1.22E-05	-9.07E-06	-4.66E-06	-1.37E-05	-2.09E-06	-2.50E-06	-4.60E-06	-1.77E-06	1.32E-06	-4.46E-07	-8.70E-06	-1.51E-06	-1.02E-05	-6.52E-06	5.19E-06	-1.33E-06	-3.44E-06	-1.65E-06	-5.09E-06	8.86E-06	1.73E-05	2.61E-05	-4.03E-06	4.00E-06	-3.56E-08	4.87E-16	8.60E-17	5.73E-16	-5.55E-06	3.40E-06	-2.16E-06	-9.52E-06	2.74E-06	-6.78E-06	-9.06E-06	-2.19E-06	-1.13E-05	-7.78E-06	1.02E-06	-6.75E-06	-5.63E-06	7.51E-07	-4.87E-06	-3.40E-06	3.07E-07	-3.09E-06	-3.82E-06	5.15E-07	-3.31E-06	-3.62E-06	-1.64E-07	-3.78E-06	1
-1.2	1.24E-06	2.02E-05	2.14E-05	-6.25E-05	-1.17E-05	-7.41E-05	-8.63E-17	1.08E-16	2.20E-17	-9.67E-05	-3.48E-05	-1.32E-04	-8.46E-05	-2.76E-05	-1.12E-04	-5.03E-05	-2.65E-05	-7.68E-05	-1.59E-05	5.83E-06	-1.01E-05	-4.26E-06	-4.26E-06	-8.52E-06	8.68E-06	4.04E-06	1.27E-05	-1.09E-05	-4.95E-06	-1.59E-05	2.57E-05	5.28E-06	3.10E-05	-4.05E-05	-1.20E-05	-5.25E-05	-4.60E-05	-5.52E-06	-5.15E-05	-6.04E-17	-1.52E-16	-2.13E-16	-1.21E-05	2.99E-06	-9.10E-06	-3.91E-05	-5.07E-06	-4.42E-05	1.68E-05	8.43E-06	2.52E-05	1.38E-06	5.10E-06	6.48E-06	1.48E-06	-1.68E-06	-2.04E-07	-5.06E-06	6.81E-08	-4.99E-06	-1.66E-06	-1.33E-06	-2.98E-06	-8.68E-06	-7.50E-06	-1.62E-05	-1.57E-06	9.24E-06	7.67E-06	-6.07E-06	-6.21E-07	-6.70E-06	2.00E-16	-1.60E-16	4.01E-17	1.64E-05	1.41E-05	3.05E-05	-3.19E-06	-2.51E-06	-5.69E-06	-6.86E-06	-3.83E-06	-1.07E-05	-2.32E-06	-2.73E-06	-5.05E-06	-2.39E-06	1.22E-06	-1.17E-06	-9.49E-06	-1.75E-06	-1.12E-05	-6.04E-06	4.75E-06	-1.29E-06	-4.44E-06	-1.89E-06	-6.33E-06	8.68E-06	1.77E-05	2.63E-05	-3.35E-06	4.72E-06	1.38E-06	3.83E-16	3.82E-17	4.21E-16	-5.06E-06	3.80E-06	-1.26E-06	-9.25E-06	3.25E-06	-6.01E-06	-9.34E-06	-2.21E-06	-1.16E-05	-7.63E-06	7.36E-07	-6.90E-06	-5.61E-06	6.23E-07	-4.99E-06	-3.20E-06	1.75E-07	-3.02E-06	-3.73E-06	3.34E-07	-3.40E-06	-4.05E-06	-1.78E-08	-4.07E-06	1
-1.16	3.47E-07	2.07E-05	2.10E-05	-5.57E-05	-8.76E-06	-6.45E-05	-8.61E-17	1.02E-16	1.56E-17	-8.48E-05	-2.80E-05	-1.13E-04	-7.82E-05	-2.35E-05	-1.02E-04	-4.68E-05	-2.31E-05	-6.99E-05	-1.64E-05	5.26E-06	-1.11E-05	-5.95E-06	-4.16E-06	-1.01E-05	6.60E-06	3.40E-06	1.00E-05	-1.24E-05	-4.86E-06	-1.73E-05	2.08E-05	4.43E-06	2.52E-05	-3.64E-05	-9.36E-06	-4.58E-05	-4.03E-05	-3.10E-06	-4.34E-05	-2.12E-16	-9.99E-17	-3.12E-16	-7.20E-06	4.70E-06	-2.50E-06	-3.36E-05	-2.88E-06	-3.65E-05	1.56E-05	8.11E-06	2.37E-05	1.28E-06	4.42E-06	5.70E-06	1.31E-06	-1.97E-06	-6.61E-07	-5.31E-06	-1.78E-07	-5.49E-06	-1.61E-06	-1.74E-06	-3.34E-06	-8.65E-06	-7.13E-06	-1.58E-05	-2.18E-06	9.55E-06	7.38E-06	-3.20E-06	7.22E-07	-2.48E-06	1.81E-16	-1.35E-16	4.64E-17	1.88E-05	1.54E-05	3.42E-05	1.37E-06	-7.69E-07	6.01E-07	-4.68E-06	-2.99E-06	-7.67E-06	-2.51E-06	-2.92E-06	-5.43E-06	-2.97E-06	1.11E-06	-1.85E-06	-1.01E-05	-1.96E-06	-1.21E-05	-5.49E-06	4.26E-06	-1.23E-06	-5.36E-06	-2.10E-06	-7.46E-06	8.41E-06	1.78E-05	2.62E-05	-2.65E-06	5.35E-06	2.70E-06	2.76E-16	-9.99E-18	2.66E-16	-4.52E-06	4.13E-06	-3.96E-07	-8.90E-06	3.69E-06	-5.22E-06	-9.50E-06	-2.21E-06	-1.17E-05	-7.41E-06	4.52E-07	-6.96E-06	-5.54E-06	4.91E-07	-5.05E-06	-2.97E-06	4.46E-08	-2.92E-06	-3.61E-06	1.54E-07	-3.46E-06	-4.43E-06	1.31E-07	-4.30E-06	1
-1.12	-5.46E-07	2.09E-05	2.03E-05	-4.85E-05	-5.82E-06	-5.43E-05	-8.51E-17	9.41E-17	9.02E-18	-7.21E-05	-2.10E-05	-9.32E-05	-7.11E-05	-1.92E-05	-9.03E-05	-4.28E-05	-1.96E-05	-6.24E-05	-1.67E-05	4.63E-06	-1.20E-05	-7.49E-06	-4.01E-06	-1.15E-05	4.51E-06	2.73E-06	7.24E-06	-1.37E-05	-4.71E-06	-1.84E-05	1.58E-05	3.56E-06	1.93E-05	-3.20E-05	-6.64E-06	-3.87E-05	-3.42E-05	-7.21E-07	-3.50E-05	-3.61E-16	-4.65E-17	-4.08E-16	-2.36E-06	6.29E-06	3.94E-06	-2.78E-05	-7.32E-07	-2.86E-05	1.43E-05	7.68E-06	2.19E-05	1.16E-06	3.69E-06	4.86E-06	1.13E-06	-2.22E-06	-1.09E-06	-5.49E-06	-4.16E-07	-5.90E-06	-1.54E-06	-2.12E-06	-3.66E-06	-8.52E-06	-6.69E-06	-1.52E-05	-2.73E-06	9.74E-06	7.01E-06	-3.91E-07	2.01E-06	1.62E-06	1.61E-16	-1.09E-16	5.23E-17	2.08E-05	1.65E-05	3.73E-05	5.77E-06	9.19E-07	6.68E-06	-2.53E-06	-2.15E-06	-4.67E-06	-2.67E-06	-3.07E-06	-5.74E-06	-3.49E-06	9.85E-07	-2.50E-06	-1.06E-05	-2.14E-06	-1.28E-05	-4.90E-06	3.72E-06	-1.17E-06	-6.18E-06	-2.28E-06	-8.46E-06	8.07E-06	1.78E-05	2.58E-05	-1.96E-06	5.89E-06	3.94E-06	1.66E-16	-5.81E-17	1.08E-16	-3.95E-06	4.39E-06	4.45E-07	-8.46E-06	4.06E-06	-4.41E-06	-9.56E-06	-2.19E-06	-1.18E-05	-7.11E-06	1.69E-07	-6.94E-06	-5.40E-06	3.57E-07	-5.05E-06	-2.71E-06	-8.45E-08	-2.80E-06	-3.46E-06	-2.22E-08	-3.48E-06	-4.77E-06	2.79E-07	-4.49E-06	1
-1.08	-1.43E-06	2.08E-05	1.94E-05	-4.09E-05	-2.89E-06	-4.38E-05	-8.32E-17	8.56E-17	2.45E-18	-5.89E-05	-1.39E-05	-7.28E-05	-6.32E-05	-1.48E-05	-7.81E-05	-3.84E-05	-1.59E-05	-5.43E-05	-1.67E-05	3.93E-06	-1.28E-05	-8.91E-06	-3.82E-06	-1.27E-05	2.42E-06	2.04E-06	4.46E-06	-1.48E-05	-4.50E-06	-1.93E-05	1.06E-05	2.66E-06	1.33E-05	-2.73E-05	-3.89E-06	-3.12E-05	-2.79E-05	1.62E-06	-2.62E-05	-5.07E-16	7.46E-18	-5.00E-16	2.42E-06	7.78E-06	1.02E-05	-2.18E-05	1.38E-06	-2.04E-05	1.27E-05	7.15E-06	1.99E-05	1.03E-06	2.93E-06	3.96E-06	9.42E-07	-2.44E-06	-1.50E-06	-5.60E-06	-6.45E-07	-6.24E-06	-1.47E-06	-2.48E-06	-3.94E-06	-8.27E-06	-6.17E-06	-1.44E-05	-3.24E-06	9.80E-06	6.56E-06	2.36E-06	3.23E-06	5.59E-06	1.39E-16	-8.18E-17	5.77E-17	2.25E-05	1.74E-05	3.99E-05	9.99E-06	2.56E-06	1.25E-05	-4.02E-07	-1.30E-06	-1.70E-06	-2.79E-06	-3.19E-06	-5.97E-06	-3.95E-06	8.45E-07	-3.11E-06	-1.10E-05	-2.28E-06	-1.33E-05	-4.24E-06	3.14E-06	-1.10E-06	-6.90E-06	-2.44E-06	-9.34E-06	7.64E-06	1.75E-05	2.52E-05	-1.25E-06	6.34E-06	5.08E-06	5.46E-17	-1.06E-16	-5.10E-17	-3.33E-06	4.59E-06	1.26E-06	-7.94E-06	4.36E-06	-3.57E-06	-9.51E-06	-2.15E-06	-1.17E-05	-6.73E-06	-1.11E-07	-6.84E-06	-5.21E-06	2.19E-07	-4.99E-06	-2.43E-06	-2.12E-07	-2.64E-06	-3.28E-06	-1.95E-07	-3.47E-06	-5.05E-06	4.26E-07	-4.62E-06	1
-1.04	-2.31E-06	2.05E-05	1.82E-05	-3.28E-05	3.19E-08	-3.28E-05	-8.04E-17	7.63E-17	-4.12E-18	-4.51E-05	-6.79E-06	-5.19E-05	-5.47E-05	-1.03E-05	-6.51E-05	-3.36E-05	-1.21E-05	-4.57E-05	-1.66E-05	3.18E-06	-1.34E-05	-1.02E-05	-3.58E-06	-1.38E-05	3.19E-07	1.32E-06	1.64E-06	-1.57E-05	-4.24E-06	-1.99E-05	5.41E-06	1.74E-06	7.15E-06	-2.23E-05	-1.10E-06	-2.34E-05	-2.12E-05	3.92E-06	-1.73E-05	-6.48E-16	6.15E-17	-5.86E-16	7.12E-06	9.15E-06	1.63E-05	-1.56E-05	3.45E-06	-1.22E-05	1.10E-05	6.53E-06	1.76E-05	8.88E-07	2.13E-06	3.02E-06	7.50E-07	-2.64E-06	-1.89E-06	-5.64E-06	-8.64E-07	-6.50E-06	-1.37E-06	-2.80E-06	-4.17E-06	-7.93E-06	-5.59E-06	-1.35E-05	-3.70E-06	9.73E-06	6.04E-06	5.05E-06	4.40E-06	9.45E-06	1.16E-16	-5.38E-17	6.25E-17	2.39E-05	1.80E-05	4.19E-05	1.40E-05	4.14E-06	1.82E-05	1.69E-06	-4.52E-07	1.24E-06	-2.87E-06	-3.27E-06	-6.14E-06	-4.36E-06	6.94E-07	-3.67E-06	-1.12E-05	-2.40E-06	-1.36E-05	-3.54E-06	2.53E-06	-1.02E-06	-7.54E-06	-2.56E-06	-1.01E-05	7.14E-06	1.70E-05	2.42E-05	-5.51E-07	6.70E-06	6.15E-06	-5.75E-17	-1.52E-16	-2.10E-16	-2.68E-06	4.73E-06	2.04E-06	-7.33E-06	4.61E-06	-2.72E-06	-9.34E-06	-2.08E-06	-1.14E-05	-6.27E-06	-3.87E-07	-6.66E-06	-4.95E-06	8.03E-08	-4.87E-06	-2.12E-06	-3.36E-07	-2.46E-06	-3.06E-06	-3.65E-07	-3.42E-06	-5.27E-06	5.70E-07	-4.70E-06	1
-1	-3.17E-06	1.99E-05	1.68E-05	-2.44E-05	2.94E-06	-2.15E-05	-7.67E-17	6.61E-17	-1.07E-17	-3.08E-05	4.29E-07	-3.04E-05	-4.56E-05	-5.76E-06	-5.13E-05	-2.84E-05	-8.09E-06	-3.65E-05	-1.63E-05	2.39E-06	-1.39E-05	-1.13E-05	-3.30E-06	-1.46E-05	-1.78E-06	5.97E-07	-1.18E-06	-1.64E-05	-3.93E-06	-2.03E-05	1.28E-07	8.08E-07	9.36E-07	-1.70E-05	1.70E-06	-1.53E-05	-1.42E-05	6.17E-06	-8.08E-06	-7.82E-16	1.15E-16	-6.67E-16	1.17E-05	1.04E-05	2.22E-05	-9.24E-06	5.46E-06	-3.77E-06	9.21E-06	5.82E-06	1.50E-05	7.31E-07	1.31E-06	2.04E-06	5.52E-07	-2.80E-06	-2.25E-06	-5.61E-06	-1.07E-06	-6.69E-06	-1.27E-06	-3.09E-06	-4.36E-06	-7.49E-06	-4.94E-06	-1.24E-05	-4.11E-06	9.55E-06	5.44E-06	7.67E-06	5.50E-06	1.32E-05	9.17E-17	-2.51E-17	6.66E-17	2.50E-05	1.84E-05	4.34E-05	1.79E-05	5.67E-06	2.36E-05	3.76E-06	3.99E-07	4.16E-06	-2.92E-06	-3.31E-06	-6.24E-06	-4.72E-06	5.34E-07	-4.19E-06	-1.13E-05	-2.48E-06	-1.38E-05	-2.80E-06	1.88E-06	-9.23E-07	-8.09E-06	-2.66E-06	-1.07E-05	6.55E-06	1.63E-05	2.29E-05	1.54E-07	6.97E-06	7.12E-06	-1.69E-16	-1.97E-16	-3.67E-16	-2.00E-06	4.80E-06	2.80E-06	-6.64E-06	4.79E-06	-1.85E-06	-9.07E-06	-1.99E-06	-1.11E-05	-5.74E-06	-6.59E-07	-6.40E-06	-4.64E-06	-6.00E-08	-4.70E-06	-1.79E-06	-4.57E-07	-2.25E-06	-2.81E-06	-5.30E-07	-3.34E-06	-5.44E-06	7.08E-07	-4.73E-06	1
-0.96	-4.00E-06	1.91E-05	1.51E-05	-1.56E-05	5.82E-06	-9.79E-06	-7.21E-17	5.50E-17	-1.71E-17	-1.60E-05	7.69E-06	-8.33E-06	-3.59E-05	-1.08E-06	-3.69E-05	-2.28E-05	-4.01E-06	-2.69E-05	-1.58E-05	1.55E-06	-1.43E-05	-1.24E-05	-2.97E-06	-1.53E-05	-3.87E-06	-1.44E-07	-4.01E-06	-1.69E-05	-3.57E-06	-2.05E-05	-5.19E-06	-1.43E-07	-5.34E-06	-1.14E-05	4.51E-06	-6.92E-06	-7.09E-06	8.36E-06	1.27E-06	-9.08E-16	1.68E-16	-7.41E-16	1.63E-05	1.16E-05	2.78E-05	-2.70E-06	7.43E-06	4.73E-06	7.25E-06	5.04E-06	1.23E-05	5.63E-07	4.58E-07	1.02E-06	3.48E-07	-2.93E-06	-2.58E-06	-5.52E-06	-1.27E-06	-6.79E-06	-1.15E-06	-3.35E-06	-4.50E-06	-6.95E-06	-4.23E-06	-1.12E-05	-4.48E-06	9.26E-06	4.78E-06	1.02E-05	6.55E-06	1.68E-05	6.59E-17	4.10E-18	7.00E-17	2.59E-05	1.86E-05	4.45E-05	2.16E-05	7.15E-06	2.88E-05	5.79E-06	1.25E-06	7.04E-06	-2.94E-06	-3.32E-06	-6.26E-06	-5.03E-06	3.65E-07	-4.66E-06	-1.13E-05	-2.54E-06	-1.38E-05	-2.01E-06	1.20E-06	-8.19E-07	-8.54E-06	-2.72E-06	-1.13E-05	5.89E-06	1.55E-05	2.13E-05	8.59E-07	7.16E-06	8.02E-06	-2.81E-16	-2.41E-16	-5.21E-16	-1.29E-06	4.82E-06	3.53E-06	-5.86E-06	4.92E-06	-9.47E-07	-8.70E-06	-1.88E-06	-1.06E-05	-5.14E-06	-9.25E-07	-6.07E-06	-4.28E-06	-2.01E-07	-4.48E-06	-1.44E-06	-5.74E-07	-2.01E-06	-2.53E-06	-6.91E-07	-3.22E-06	-5.55E-06	8.39E-07	-4.71E-06	1
-0.92	-4.80E-06	1.81E-05	1.33E-05	-6.55E-06	8.69E-06	2.14E-06	-6.65E-17	4.30E-17	-2.35E-17	-8.61E-07	1.50E-05	1.41E-05	-2.56E-05	3.67E-06	-2.19E-05	-1.70E-05	1.77E-07	-1.68E-05	-1.51E-05	6.93E-07	-1.44E-05	-1.33E-05	-2.61E-06	-1.59E-05	-5.95E-06	-8.94E-07	-6.84E-06	-1.73E-05	-3.17E-06	-2.04E-05	-1.05E-05	-1.11E-06	-1.16E-05	-5.68E-06	7.31E-06	1.64E-06	2.42E-07	1.05E-05	1.07E-05	-1.03E-15	2.19E-16	-8.07E-16	2.06E-05	1.26E-05	3.33E-05	3.96E-06	9.35E-06	1.33E-05	5.18E-06	4.19E-06	9.37E-06	3.88E-07	-4.07E-07	-1.88E-08	1.37E-07	-3.03E-06	-2.89E-06	-5.37E-06	-1.46E-06	-6.83E-06	-1.01E-06	-3.57E-06	-4.59E-06	-6.33E-06	-3.46E-06	-9.79E-06	-4.81E-06	8.86E-06	4.06E-06	1.27E-05	7.54E-06	2.02E-05	3.88E-17	3.37E-17	7.26E-17	2.64E-05	1.86E-05	4.50E-05	2.51E-05	8.57E-06	3.37E-05	7.79E-06	2.10E-06	9.89E-06	-2.93E-06	-3.29E-06	-6.22E-06	-5.29E-06	1.90E-07	-5.10E-06	-1.11E-05	-2.57E-06	-1.37E-05	-1.20E-06	4.92E-07	-7.06E-07	-8.91E-06	-2.76E-06	-1.17E-05	5.15E-06	1.44E-05	1.95E-05	1.56E-06	7.28E-06	8.85E-06	-3.90E-16	-2.81E-16	-6.71E-16	-5.62E-07	4.79E-06	4.23E-06	-5.02E-06	4.99E-06	-2.54E-08	-8.22E-06	-1.74E-06	-9.97E-06	-4.48E-06	-1.19E-06	-5.67E-06	-3.86E-06	-3.41E-07	-4.20E-06	-1.06E-06	-6.86E-07	-1.75E-06	-2.22E-06	-8.46E-07	-3.06E-06	-5.59E-06	9.60E-07	-4.63E-06	1
-0.88	-5.57E-06	1.69E-05	1.13E-05	2.77E-06	1.15E-05	1.43E-05	-6.00E-17	3.03E-17	-2.97E-17	1.46E-05	2.22E-05	3.68E-05	-1.49E-05	8.50E-06	-6.37E-06	-1.08E-05	4.45E-06	-6.31E-06	-1.43E-05	-1.87E-07	-1.45E-05	-1.41E-05	-2.22E-06	-1.63E-05	-8.01E-06	-1.65E-06	-9.66E-06	-1.74E-05	-2.72E-06	-2.02E-05	-1.59E-05	-2.08E-06	-1.80E-05	2.47E-07	1.01E-05	1.03E-05	7.72E-06	1.26E-05	2.03E-05	-1.13E-15	2.68E-16	-8.64E-16	2.49E-05	1.35E-05	3.85E-05	1.07E-05	1.12E-05	2.19E-05	3.02E-06	3.28E-06	6.30E-06	2.07E-07	-1.28E-06	-1.08E-06	-7.93E-08	-3.10E-06	-3.18E-06	-5.15E-06	-1.64E-06	-6.79E-06	-8.62E-07	-3.76E-06	-4.62E-06	-5.64E-06	-2.64E-06	-8.28E-06	-5.09E-06	8.37E-06	3.27E-06	1.51E-05	8.48E-06	2.36E-05	1.06E-17	6.36E-17	7.42E-17	2.67E-05	1.84E-05	4.51E-05	2.84E-05	9.93E-06	3.84E-05	9.75E-06	2.95E-06	1.27E-05	-2.89E-06	-3.23E-06	-6.12E-06	-5.50E-06	1.16E-08	-5.48E-06	-1.08E-05	-2.57E-06	-1.34E-05	-3.55E-07	-2.28E-07	-5.82E-07	-9.20E-06	-2.77E-06	-1.20E-05	4.34E-06	1.32E-05	1.75E-05	2.27E-06	7.33E-06	9.60E-06	-4.96E-16	-3.19E-16	-8.16E-16	1.90E-07	4.71E-06	4.90E-06	-4.10E-06	5.02E-06	9.20E-07	-7.65E-06	-1.59E-06	-9.24E-06	-3.76E-06	-1.44E-06	-5.19E-06	-3.39E-06	-4.81E-07	-3.87E-06	-6.72E-07	-7.93E-07	-1.47E-06	-1.87E-06	-9.96E-07	-2.87E-06	-5.58E-06	1.07E-06	-4.51E-06	1
-0.84	-6.29E-06	1.54E-05	9.15E-06	1.23E-05	1.43E-05	2.66E-05	-5.26E-17	1.68E-17	-3.58E-17	3.03E-05	2.95E-05	5.98E-05	-3.71E-06	1.34E-05	9.67E-06	-4.31E-06	8.80E-06	4.48E-06	-1.33E-05	-1.08E-06	-1.43E-05	-1.47E-05	-1.80E-06	-1.65E-05	-1.00E-05	-2.40E-06	-1.24E-05	-1.75E-05	-2.24E-06	-1.97E-05	-2.12E-05	-3.06E-06	-2.42E-05	6.30E-06	1.28E-05	1.91E-05	1.53E-05	1.46E-05	2.98E-05	-1.23E-15	3.15E-16	-9.12E-16	2.91E-05	1.44E-05	4.34E-05	1.75E-05	1.30E-05	3.05E-05	8.00E-07	2.33E-06	3.13E-06	2.25E-08	-2.16E-06	-2.14E-06	-3.02E-07	-3.14E-06	-3.45E-06	-4.88E-06	-1.81E-06	-6.69E-06	-6.94E-07	-3.92E-06	-4.61E-06	-4.87E-06	-1.78E-06	-6.65E-06	-5.34E-06	7.77E-06	2.43E-06	1.74E-05	9.36E-06	2.68E-05	-1.85E-17	9.35E-17	7.50E-17	2.68E-05	1.80E-05	4.48E-05	3.16E-05	1.12E-05	4.28E-05	1.17E-05	3.79E-06	1.55E-05	-2.82E-06	-3.12E-06	-5.94E-06	-5.66E-06	-1.69E-07	-5.83E-06	-1.05E-05	-2.55E-06	-1.30E-05	5.09E-07	-9.58E-07	-4.49E-07	-9.41E-06	-2.74E-06	-1.22E-05	3.46E-06	1.18E-05	1.52E-05	2.97E-06	7.31E-06	1.03E-05	-5.99E-16	-3.54E-16	-9.53E-16	9.58E-07	4.58E-06	5.54E-06	-3.11E-06	5.00E-06	1.89E-06	-6.99E-06	-1.41E-06	-8.40E-06	-2.98E-06	-1.68E-06	-4.66E-06	-2.88E-06	-6.19E-07	-3.49E-06	-2.63E-07	-8.94E-07	-1.16E-06	-1.50E-06	-1.14E-06	-2.64E-06	-5.50E-06	1.17E-06	-4.33E-06	1
-0.8	-6.96E-06	1.39E-05	6.90E-06	2.20E-05	1.71E-05	3.91E-05	-4.42E-17	2.59E-18	-4.16E-17	4.62E-05	3.67E-05	8.29E-05	7.80E-06	1.83E-05	2.61E-05	2.36E-06	1.32E-05	1.56E-05	-1.21E-05	-1.97E-06	-1.41E-05	-1.53E-05	-1.34E-06	-1.67E-05	-1.21E-05	-3.16E-06	-1.52E-05	-1.73E-05	-1.72E-06	-1.90E-05	-2.64E-05	-4.04E-06	-3.05E-05	1.25E-05	1.55E-05	2.80E-05	2.29E-05	1.65E-05	3.94E-05	-1.31E-15	3.59E-16	-9.49E-16	3.30E-05	1.51E-05	4.81E-05	2.44E-05	1.47E-05	3.91E-05	-1.47E-06	1.34E-06	-1.23E-07	-1.64E-07	-3.04E-06	-3.20E-06	-5.31E-07	-3.16E-06	-3.69E-06	-4.56E-06	-1.96E-06	-6.52E-06	-5.10E-07	-4.04E-06	-4.55E-06	-4.04E-06	-8.71E-07	-4.91E-06	-5.55E-06	7.10E-06	1.55E-06	1.96E-05	1.02E-05	2.98E-05	-4.86E-17	1.23E-16	7.46E-17	2.66E-05	1.75E-05	4.41E-05	3.45E-05	1.25E-05	4.70E-05	1.36E-05	4.63E-06	1.82E-05	-2.72E-06	-2.99E-06	-5.71E-06	-5.77E-06	-3.50E-07	-6.13E-06	-9.95E-06	-2.52E-06	-1.25E-05	1.39E-06	-1.69E-06	-3.06E-07	-9.54E-06	-2.69E-06	-1.22E-05	2.51E-06	1.02E-05	1.27E-05	3.67E-06	7.23E-06	1.09E-05	-6.97E-16	-3.85E-16	-1.08E-15	1.74E-06	4.41E-06	6.15E-06	-2.07E-06	4.95E-06	2.89E-06	-6.24E-06	-1.20E-06	-7.45E-06	-2.14E-06	-1.92E-06	-4.07E-06	-2.32E-06	-7.54E-07	-3.07E-06	1.61E-07	-9.88E-07	-8.28E-07	-1.09E-06	-1.28E-06	-2.37E-06	-5.36E-06	1.25E-06	-4.11E-06	1
-0.76	-7.57E-06	1.21E-05	4.56E-06	3.18E-05	1.99E-05	5.17E-05	-3.50E-17	-1.23E-17	-4.73E-17	6.22E-05	4.38E-05	1.06E-04	1.96E-05	2.33E-05	4.29E-05	9.23E-06	1.76E-05	2.69E-05	-1.08E-05	-2.85E-06	-1.36E-05	-1.58E-05	-8.68E-07	-1.67E-05	-1.40E-05	-3.90E-06	-1.79E-05	-1.70E-05	-1.18E-06	-1.82E-05	-3.16E-05	-5.02E-06	-3.66E-05	1.86E-05	1.82E-05	3.68E-05	3.05E-05	1.83E-05	4.89E-05	-1.38E-15	4.00E-16	-9.75E-16	3.69E-05	1.57E-05	5.26E-05	3.12E-05	1.64E-05	4.76E-05	-3.75E-06	3.39E-07	-3.41E-06	-3.49E-07	-3.91E-06	-4.26E-06	-7.66E-07	-3.14E-06	-3.91E-06	-4.18E-06	-2.11E-06	-6.29E-06	-3.09E-07	-4.13E-06	-4.44E-06	-3.16E-06	6.73E-08	-3.09E-06	-5.73E-06	6.34E-06	6.15E-07	2.18E-05	1.10E-05	3.28E-05	-7.93E-17	1.53E-16	7.32E-17	2.62E-05	1.68E-05	4.31E-05	3.73E-05	1.36E-05	5.09E-05	1.54E-05	5.46E-06	2.09E-05	-2.60E-06	-2.82E-06	-5.41E-06	-5.85E-06	-5.29E-07	-6.38E-06	-9.36E-06	-2.46E-06	-1.18E-05	2.27E-06	-2.42E-06	-1.54E-07	-9.59E-06	-2.61E-06	-1.22E-05	1.49E-06	8.55E-06	1.00E-05	4.37E-06	7.11E-06	1.15E-05	-7.90E-16	-4.12E-16	-1.20E-15	2.52E-06	4.21E-06	6.73E-06	-9.63E-07	4.87E-06	3.91E-06	-5.41E-06	-9.81E-07	-6.39E-06	-1.27E-06	-2.15E-06	-3.42E-06	-1.72E-06	-8.85E-07	-2.61E-06	5.97E-07	-1.08E-06	-4.78E-07	-6.54E-07	-1.41E-06	-2.06E-06	-5.15E-06	1.31E-06	-3.84E-06	1
-0.72	-8.11E-06	1.03E-05	2.16E-06	4.16E-05	2.26E-05	6.42E-05	-2.48E-17	-2.78E-17	-5.26E-17	7.82E-05	5.08E-05	1.29E-04	3.17E-05	2.82E-05	5.99E-05	1.62E-05	2.21E-05	3.83E-05	-9.32E-06	-3.71E-06	-1.30E-05	-1.62E-05	-3.73E-07	-1.66E-05	-1.60E-05	-4.64E-06	-2.06E-05	-1.66E-05	-6.24E-07	-1.72E-05	-3.67E-05	-6.00E-06	-4.27E-05	2.49E-05	2.07E-05	4.56E-05	3.81E-05	2.01E-05	5.82E-05	-1.43E-15	4.37E-16	-9.90E-16	4.05E-05	1.62E-05	5.68E-05	3.80E-05	1.80E-05	5.61E-05	-6.03E-06	-6.73E-07	-6.71E-06	-5.31E-07	-4.76E-06	-5.29E-06	-1.01E-06	-3.10E-06	-4.11E-06	-3.76E-06	-2.24E-06	-6.00E-06	-9.23E-08	-4.18E-06	-4.28E-06	-2.23E-06	1.03E-06	-1.20E-06	-5.88E-06	5.52E-06	-3.54E-07	2.38E-05	1.17E-05	3.56E-05	-1.11E-16	1.81E-16	7.06E-17	2.57E-05	1.60E-05	4.17E-05	3.99E-05	1.48E-05	5.46E-05	1.73E-05	6.28E-06	2.35E-05	-2.45E-06	-2.61E-06	-5.06E-06	-5.88E-06	-7.03E-07	-6.59E-06	-8.68E-06	-2.38E-06	-1.11E-05	3.16E-06	-3.15E-06	7.70E-09	-9.59E-06	-2.51E-06	-1.21E-05	4.22E-07	6.77E-06	7.19E-06	5.06E-06	6.93E-06	1.20E-05	-8.76E-16	-4.34E-16	-1.31E-15	3.31E-06	3.98E-06	7.29E-06	1.93E-07	4.76E-06	4.95E-06	-4.50E-06	-7.37E-07	-5.24E-06	-3.52E-07	-2.37E-06	-2.72E-06	-1.09E-06	-1.01E-06	-2.11E-06	1.04E-06	-1.15E-06	-1.11E-07	-1.88E-07	-1.53E-06	-1.72E-06	-4.88E-06	1.36E-06	-3.52E-06	1
-0.68	-8.58E-06	8.33E-06	-2.59E-07	5.15E-05	2.52E-05	7.68E-05	-1.38E-17	-4.38E-17	-5.76E-17	9.42E-05	5.78E-05	1.52E-04	4.39E-05	3.32E-05	7.71E-05	2.34E-05	2.66E-05	4.99E-05	-7.75E-06	-4.55E-06	-1.23E-05	-1.65E-05	1.36E-07	-1.64E-05	-1.78E-05	-5.35E-06	-2.32E-05	-1.60E-05	-4.72E-08	-1.61E-05	-4.17E-05	-6.96E-06	-4.86E-05	3.10E-05	2.32E-05	5.42E-05	4.56E-05	2.18E-05	6.74E-05	-1.46E-15	4.69E-16	-9.92E-16	4.40E-05	1.67E-05	6.07E-05	4.48E-05	1.96E-05	6.44E-05	-8.28E-06	-1.68E-06	-9.96E-06	-7.07E-07	-5.59E-06	-6.30E-06	-1.25E-06	-3.03E-06	-4.29E-06	-3.30E-06	-2.36E-06	-5.66E-06	1.41E-07	-4.20E-06	-4.06E-06	-1.28E-06	2.02E-06	7.43E-07	-6.00E-06	4.64E-06	-1.35E-06	2.58E-05	1.24E-05	3.82E-05	-1.42E-16	2.09E-16	6.69E-17	2.50E-05	1.51E-05	4.00E-05	4.23E-05	1.58E-05	5.81E-05	1.91E-05	7.09E-06	2.61E-05	-2.28E-06	-2.38E-06	-4.66E-06	-5.88E-06	-8.72E-07	-6.75E-06	-7.92E-06	-2.29E-06	-1.02E-05	4.03E-06	-3.86E-06	1.78E-07	-9.51E-06	-2.37E-06	-1.19E-05	-7.04E-07	4.90E-06	4.19E-06	5.75E-06	6.72E-06	1.25E-05	-9.55E-16	-4.52E-16	-1.41E-15	4.10E-06	3.73E-06	7.82E-06	1.39E-06	4.63E-06	6.03E-06	-3.53E-06	-4.72E-07	-4.00E-06	5.99E-07	-2.58E-06	-1.98E-06	-4.33E-07	-1.14E-06	-1.57E-06	1.50E-06	-1.22E-06	2.74E-07	3.06E-07	-1.65E-06	-1.34E-06	-4.54E-06	1.39E-06	-3.16E-06	1
-0.64	-8.98E-06	6.30E-06	-2.68E-06	6.13E-05	2.79E-05	8.92E-05	-2.00E-18	-6.03E-17	-6.23E-17	1.10E-04	6.45E-05	1.74E-04	5.62E-05	3.82E-05	9.44E-05	3.06E-05	3.10E-05	6.16E-05	-6.07E-06	-5.34E-06	-1.14E-05	-1.67E-05	6.56E-07	-1.61E-05	-1.97E-05	-6.05E-06	-2.57E-05	-1.53E-05	5.40E-07	-1.48E-05	-4.65E-05	-7.92E-06	-5.44E-05	3.71E-05	2.55E-05	6.26E-05	5.29E-05	2.34E-05	7.63E-05	-1.48E-15	4.97E-16	-9.81E-16	4.73E-05	1.70E-05	6.43E-05	5.14E-05	2.11E-05	7.25E-05	-1.05E-05	-2.67E-06	-1.32E-05	-8.76E-07	-6.39E-06	-7.26E-06	-1.51E-06	-2.94E-06	-4.45E-06	-2.80E-06	-2.47E-06	-5.27E-06	3.89E-07	-4.19E-06	-3.80E-06	-2.91E-07	3.02E-06	2.73E-06	-6.09E-06	3.71E-06	-2.38E-06	2.77E-05	1.31E-05	4.08E-05	-1.74E-16	2.36E-16	6.19E-17	2.41E-05	1.41E-05	3.82E-05	4.45E-05	1.68E-05	6.13E-05	2.08E-05	7.89E-06	2.87E-05	-2.10E-06	-2.11E-06	-4.21E-06	-5.85E-06	-1.03E-06	-6.88E-06	-7.09E-06	-2.19E-06	-9.28E-06	4.90E-06	-4.54E-06	3.57E-07	-9.39E-06	-2.22E-06	-1.16E-05	-1.88E-06	2.95E-06	1.07E-06	6.44E-06	6.48E-06	1.29E-05	-1.03E-15	-4.64E-16	-1.49E-15	4.88E-06	3.45E-06	8.33E-06	2.64E-06	4.49E-06	7.13E-06	-2.49E-06	-1.87E-07	-2.68E-06	1.58E-06	-2.77E-06	-1.19E-06	2.53E-07	-1.25E-06	-9.99E-07	1.96E-06	-1.29E-06	6.74E-07	8.27E-07	-1.76E-06	-9.31E-07	-4.14E-06	1.39E-06	-2.75E-06	1
-0.6	-9.29E-06	4.22E-06	-5.06E-06	7.11E-05	3.04E-05	1.02E-04	1.06E-17	-7.72E-17	-6.67E-17	1.26E-04	7.11E-05	1.97E-04	6.86E-05	4.31E-05	1.12E-04	3.78E-05	3.54E-05	7.32E-05	-4.29E-06	-6.08E-06	-1.04E-05	-1.69E-05	1.18E-06	-1.57E-05	-2.14E-05	-6.72E-06	-2.82E-05	-1.46E-05	1.13E-06	-1.34E-05	-5.11E-05	-8.87E-06	-6.00E-05	4.31E-05	2.77E-05	7.08E-05	6.01E-05	2.49E-05	8.49E-05	-1.48E-15	5.20E-16	-9.57E-16	5.04E-05	1.73E-05	6.76E-05	5.79E-05	2.25E-05	8.04E-05	-1.26E-05	-3.63E-06	-1.62E-05	-1.03E-06	-7.15E-06	-8.18E-06	-1.76E-06	-2.83E-06	-4.59E-06	-2.27E-06	-2.57E-06	-4.83E-06	6.54E-07	-4.14E-06	-3.48E-06	7.07E-07	4.02E-06	4.73E-06	-6.17E-06	2.75E-06	-3.42E-06	2.95E-05	1.37E-05	4.32E-05	-2.06E-16	2.62E-16	5.57E-17	2.31E-05	1.30E-05	3.61E-05	4.66E-05	1.78E-05	6.43E-05	2.25E-05	8.67E-06	3.12E-05	-1.89E-06	-1.81E-06	-3.71E-06	-5.78E-06	-1.18E-06	-6.96E-06	-6.20E-06	-2.07E-06	-8.27E-06	5.74E-06	-5.20E-06	5.44E-07	-9.20E-06	-2.03E-06	-1.12E-05	-3.10E-06	9.43E-07	-2.16E-06	7.11E-06	6.21E-06	1.33E-05	-1.09E-15	-4.71E-16	-1.56E-15	5.64E-06	3.17E-06	8.81E-06	3.91E-06	4.34E-06	8.25E-06	-1.40E-06	1.17E-07	-1.28E-06	2.58E-06	-2.96E-06	-3.78E-07	9.62E-07	-1.36E-06	-4.00E-07	2.43E-06	-1.34E-06	1.09E-06	1.37E-06	-1.86E-06	-4.84E-07	-3.67E-06	1.37E-06	-2.30E-06	1
-0.56	-9.51E-06	2.12E-06	-7.39E-06	8.07E-05	3.30E-05	1.14E-04	2.38E-17	-9.44E-17	-7.06E-17	1.41E-04	7.76E-05	2.18E-04	8.09E-05	4.80E-05	1.29E-04	4.50E-05	3.98E-05	8.48E-05	-2.42E-06	-6.76E-06	-9.18E-06	-1.70E-05	1.71E-06	-1.53E-05	-2.32E-05	-7.37E-06	-3.05E-05	-1.37E-05	1.72E-06	-1.20E-05	-5.56E-05	-9.79E-06	-6.53E-05	4.88E-05	2.98E-05	7.86E-05	6.70E-05	2.63E-05	9.33E-05	-1.46E-15	5.37E-16	-9.20E-16	5.32E-05	1.75E-05	7.07E-05	6.42E-05	2.38E-05	8.81E-05	-1.46E-05	-4.55E-06	-1.92E-05	-1.18E-06	-7.87E-06	-9.05E-06	-2.03E-06	-2.69E-06	-4.72E-06	-1.71E-06	-2.65E-06	-4.36E-06	9.32E-07	-4.05E-06	-3.12E-06	1.71E-06	5.03E-06	6.74E-06	-6.22E-06	1.75E-06	-4.48E-06	3.12E-05	1.43E-05	4.55E-05	-2.38E-16	2.86E-16	4.83E-17	2.21E-05	1.18E-05	3.38E-05	4.84E-05	1.87E-05	6.71E-05	2.42E-05	9.45E-06	3.37E-05	-1.67E-06	-1.49E-06	-3.16E-06	-5.68E-06	-1.32E-06	-7.00E-06	-5.26E-06	-1.95E-06	-7.21E-06	6.56E-06	-5.82E-06	7.40E-07	-8.98E-06	-1.83E-06	-1.08E-05	-4.36E-06	-1.10E-06	-5.46E-06	7.79E-06	5.93E-06	1.37E-05	-1.14E-15	-4.72E-16	-1.61E-15	6.39E-06	2.88E-06	9.28E-06	5.21E-06	4.20E-06	9.41E-06	-2.54E-07	4.38E-07	1.85E-07	3.59E-06	-3.13E-06	4.66E-07	1.69E-06	-1.47E-06	2.22E-07	2.89E-06	-1.38E-06	1.51E-06	1.95E-06	-1.95E-06	-4.57E-09	-3.15E-06	1.34E-06	-1.81E-06	1
-0.52	-9.63E-06	8.63E-09	-9.62E-06	9.01E-05	3.54E-05	1.25E-04	3.76E-17	-1.12E-16	-7.41E-17	1.56E-04	8.38E-05	2.40E-04	9.31E-05	5.29E-05	1.46E-04	5.21E-05	4.41E-05	9.62E-05	-4.79E-07	-7.37E-06	-7.85E-06	-1.71E-05	2.24E-06	-1.49E-05	-2.48E-05	-7.98E-06	-3.28E-05	-1.27E-05	2.31E-06	-1.04E-05	-5.98E-05	-1.07E-05	-7.05E-05	5.44E-05	3.17E-05	8.61E-05	7.36E-05	2.76E-05	1.01E-04	-1.42E-15	5.49E-16	-8.69E-16	5.59E-05	1.76E-05	7.35E-05	7.04E-05	2.51E-05	9.55E-05	-1.65E-05	-5.41E-06	-2.19E-05	-1.31E-06	-8.54E-06	-9.85E-06	-2.30E-06	-2.54E-06	-4.84E-06	-1.13E-06	-2.72E-06	-3.85E-06	1.23E-06	-3.94E-06	-2.71E-06	2.70E-06	6.02E-06	8.73E-06	-6.26E-06	7.31E-07	-5.53E-06	3.28E-05	1.49E-05	4.77E-05	-2.69E-16	3.09E-16	3.96E-17	2.09E-05	1.06E-05	3.15E-05	5.02E-05	1.95E-05	6.97E-05	2.59E-05	1.02E-05	3.61E-05	-1.44E-06	-1.14E-06	-2.58E-06	-5.56E-06	-1.44E-06	-7.00E-06	-4.28E-06	-1.83E-06	-6.10E-06	7.34E-06	-6.39E-06	9.44E-07	-8.71E-06	-1.61E-06	-1.03E-05	-5.65E-06	-3.17E-06	-8.82E-06	8.46E-06	5.64E-06	1.41E-05	-1.18E-15	-4.67E-16	-1.65E-15	7.12E-06	2.59E-06	9.72E-06	6.54E-06	4.05E-06	1.06E-05	9.32E-07	7.77E-07	1.71E-06	4.62E-06	-3.28E-06	1.33E-06	2.43E-06	-1.56E-06	8.65E-07	3.36E-06	-1.41E-06	1.95E-06	2.54E-06	-2.03E-06	5.07E-07	-2.56E-06	1.27E-06	-1.28E-06	1
-0.48	-9.64E-06	-2.08E-06	-1.17E-05	9.92E-05	3.79E-05	1.37E-04	5.20E-17	-1.29E-16	-7.72E-17	1.70E-04	8.98E-05	2.60E-04	1.05E-04	5.77E-05	1.63E-04	5.92E-05	4.83E-05	1.07E-04	1.52E-06	-7.91E-06	-6.39E-06	-1.71E-05	2.76E-06	-1.44E-05	-2.64E-05	-8.55E-06	-3.49E-05	-1.17E-05	2.88E-06	-8.85E-06	-6.38E-05	-1.16E-05	-7.54E-05	5.97E-05	3.35E-05	9.32E-05	7.99E-05	2.88E-05	1.09E-04	-1.36E-15	5.55E-16	-8.04E-16	5.83E-05	1.77E-05	7.60E-05	7.63E-05	2.63E-05	1.03E-04	-1.83E-05	-6.20E-06	-2.45E-05	-1.43E-06	-9.15E-06	-1.06E-05	-2.58E-06	-2.37E-06	-4.94E-06	-5.34E-07	-2.78E-06	-3.32E-06	1.53E-06	-3.79E-06	-2.26E-06	3.68E-06	7.01E-06	1.07E-05	-6.29E-06	-2.95E-07	-6.59E-06	3.43E-05	1.54E-05	4.98E-05	-3.00E-16	3.30E-16	2.98E-17	1.97E-05	9.36E-06	2.91E-05	5.18E-05	2.03E-05	7.20E-05	2.75E-05	1.09E-05	3.85E-05	-1.20E-06	-7.70E-07	-1.97E-06	-5.42E-06	-1.55E-06	-6.97E-06	-3.26E-06	-1.70E-06	-4.96E-06	8.08E-06	-6.92E-06	1.15E-06	-8.40E-06	-1.36E-06	-9.76E-06	-6.97E-06	-5.24E-06	-1.22E-05	9.12E-06	5.35E-06	1.45E-05	-1.22E-15	-4.56E-16	-1.67E-15	7.83E-06	2.31E-06	1.01E-05	7.87E-06	3.92E-06	1.18E-05	2.15E-06	1.13E-06	3.28E-06	5.64E-06	-3.43E-06	2.22E-06	3.17E-06	-1.65E-06	1.53E-06	3.83E-06	-1.43E-06	2.39E-06	3.15E-06	-2.11E-06	1.05E-06	-1.91E-06	1.19E-06	-7.19E-07	1
-0.44	-9.55E-06	-4.13E-06	-1.37E-05	1.08E-04	4.02E-05	1.48E-04	6.69E-17	-1.47E-16	-7.98E-17	1.84E-04	9.55E-05	2.80E-04	1.17E-04	6.24E-05	1.79E-04	6.61E-05	5.24E-05	1.18E-04	3.57E-06	-8.35E-06	-4.79E-06	-1.72E-05	3.26E-06	-1.39E-05	-2.79E-05	-9.09E-06	-3.70E-05	-1.07E-05	3.44E-06	-7.23E-06	-6.75E-05	-1.24E-05	-8.00E-05	6.48E-05	3.50E-05	9.98E-05	8.59E-05	2.99E-05	1.16E-04	-1.28E-15	5.55E-16	-7.25E-16	6.05E-05	1.77E-05	7.82E-05	8.19E-05	2.75E-05	1.09E-04	-1.98E-05	-6.92E-06	-2.67E-05	-1.53E-06	-9.70E-06	-1.12E-05	-2.86E-06	-2.18E-06	-5.04E-06	7.19E-08	-2.83E-06	-2.75E-06	1.85E-06	-3.62E-06	-1.77E-06	4.64E-06	7.97E-06	1.26E-05	-6.31E-06	-1.32E-06	-7.63E-06	3.58E-05	1.60E-05	5.18E-05	-3.30E-16	3.49E-16	1.87E-17	1.85E-05	8.12E-06	2.66E-05	5.32E-05	2.10E-05	7.42E-05	2.91E-05	1.17E-05	4.08E-05	-9.42E-07	-3.77E-07	-1.32E-06	-5.26E-06	-1.63E-06	-6.89E-06	-2.23E-06	-1.57E-06	-3.80E-06	8.77E-06	-7.40E-06	1.37E-06	-8.07E-06	-1.10E-06	-9.16E-06	-8.31E-06	-7.30E-06	-1.56E-05	9.78E-06	5.07E-06	1.49E-05	-1.24E-15	-4.38E-16	-1.67E-15	8.51E-06	2.04E-06	1.05E-05	9.22E-06	3.81E-06	1.30E-05	3.40E-06	1.50E-06	4.90E-06	6.67E-06	-3.56E-06	3.11E-06	3.92E-06	-1.72E-06	2.20E-06	4.29E-06	-1.44E-06	2.85E-06	3.79E-06	-2.17E-06	1.62E-06	-1.20E-06	1.08E-06	-1.21E-07	1
-0.4	-9.35E-06	-6.12E-06	-1.55E-05	1.17E-04	4.25E-05	1.59E-04	8.21E-17	-1.64E-16	-8.20E-17	1.98E-04	1.01E-04	2.99E-04	1.28E-04	6.71E-05	1.95E-04	7.28E-05	5.64E-05	1.29E-04	5.64E-06	-8.70E-06	-3.06E-06	-1.72E-05	3.76E-06	-1.34E-05	-2.93E-05	-9.58E-06	-3.89E-05	-9.55E-06	3.97E-06	-5.58E-06	-7.10E-05	-1.33E-05	-8.43E-05	6.94E-05	3.64E-05	1.06E-04	9.14E-05	3.10E-05	1.22E-04	-1.18E-15	5.49E-16	-6.34E-16	6.25E-05	1.76E-05	8.02E-05	8.72E-05	2.86E-05	1.16E-04	-2.12E-05	-7.55E-06	-2.88E-05	-1.61E-06	-1.02E-05	-1.18E-05	-3.15E-06	-1.98E-06	-5.13E-06	6.84E-07	-2.86E-06	-2.18E-06	2.18E-06	-3.41E-06	-1.23E-06	5.56E-06	8.91E-06	1.45E-05	-6.32E-06	-2.33E-06	-8.65E-06	3.72E-05	1.65E-05	5.36E-05	-3.60E-16	3.66E-16	6.60E-18	1.72E-05	6.90E-06	2.41E-05	5.45E-05	2.17E-05	7.62E-05	3.07E-05	1.24E-05	4.30E-05	-6.81E-07	3.60E-08	-6.45E-07	-5.08E-06	-1.70E-06	-6.78E-06	-1.19E-06	-1.44E-06	-2.63E-06	9.42E-06	-7.82E-06	1.60E-06	-7.70E-06	-8.22E-07	-8.53E-06	-9.67E-06	-9.32E-06	-1.90E-05	1.04E-05	4.81E-06	1.52E-05	-1.25E-15	-4.15E-16	-1.66E-15	9.15E-06	1.79E-06	1.09E-05	1.06E-05	3.72E-06	1.43E-05	4.67E-06	1.88E-06	6.56E-06	7.68E-06	-3.67E-06	4.01E-06	4.67E-06	-1.79E-06	2.88E-06	4.74E-06	-1.44E-06	3.30E-06	4.44E-06	-2.22E-06	2.22E-06	-4.40E-07	9.49E-07	5.09E-07	1
-0.36	-9.03E-06	-8.03E-06	-1.71E-05	1.25E-04	4.48E-05	1.70E-04	9.76E-17	-1.81E-16	-8.36E-17	2.10E-04	1.06E-04	3.17E-04	1.39E-04	7.16E-05	2.11E-04	7.93E-05	6.03E-05	1.40E-04	7.74E-06	-8.96E-06	-1.21E-06	-1.72E-05	4.23E-06	-1.29E-05	-3.07E-05	-1.00E-05	-4.07E-05	-8.42E-06	4.48E-06	-3.94E-06	-7.42E-05	-1.40E-05	-8.83E-05	7.38E-05	3.76E-05	1.11E-04	9.65E-05	3.19E-05	1.28E-04	-1.07E-15	5.38E-16	-5.29E-16	6.43E-05	1.76E-05	8.18E-05	9.23E-05	2.96E-05	1.22E-04	-2.24E-05	-8.08E-06	-3.05E-05	-1.67E-06	-1.06E-05	-1.23E-05	-3.45E-06	-1.76E-06	-5.21E-06	1.30E-06	-2.88E-06	-1.58E-06	2.51E-06	-3.18E-06	-6.62E-07	6.43E-06	9.82E-06	1.63E-05	-6.32E-06	-3.33E-06	-9.65E-06	3.84E-05	1.70E-05	5.54E-05	-3.87E-16	3.81E-16	-6.57E-18	1.60E-05	5.70E-06	2.17E-05	5.56E-05	2.23E-05	7.80E-05	3.22E-05	1.31E-05	4.53E-05	-4.15E-07	4.66E-07	5.15E-08	-4.89E-06	-1.75E-06	-6.64E-06	-1.44E-07	-1.31E-06	-1.46E-06	1.00E-05	-8.17E-06	1.83E-06	-7.32E-06	-5.31E-07	-7.85E-06	-1.10E-05	-1.13E-05	-2.23E-05	1.11E-05	4.56E-06	1.56E-05	-1.24E-15	-3.86E-16	-1.63E-15	9.76E-06	1.56E-06	1.13E-05	1.19E-05	3.66E-06	1.56E-05	5.96E-06	2.28E-06	8.23E-06	8.68E-06	-3.77E-06	4.91E-06	5.42E-06	-1.85E-06	3.57E-06	5.19E-06	-1.43E-06	3.76E-06	5.11E-06	-2.27E-06	2.84E-06	3.73E-07	7.97E-07	1.17E-06	1
-0.32	-8.60E-06	-9.83E-06	-1.84E-05	1.32E-04	4.70E-05	1.79E-04	1.13E-16	-1.98E-16	-8.48E-17	2.22E-04	1.11E-04	3.34E-04	1.50E-04	7.61E-05	2.26E-04	8.56E-05	6.40E-05	1.50E-04	9.85E-06	-9.10E-06	7.55E-07	-1.72E-05	4.68E-06	-1.25E-05	-3.19E-05	-1.04E-05	-4.24E-05	-7.26E-06	4.95E-06	-2.31E-06	-7.71E-05	-1.48E-05	-9.19E-05	7.77E-05	3.86E-05	1.16E-04	1.01E-04	3.27E-05	1.34E-04	-9.31E-16	5.20E-16	-4.12E-16	6.58E-05	1.74E-05	8.32E-05	9.70E-05	3.05E-05	1.28E-04	-2.34E-05	-8.50E-06	-3.19E-05	-1.71E-06	-1.09E-05	-1.27E-05	-3.75E-06	-1.53E-06	-5.28E-06	1.90E-06	-2.88E-06	-9.82E-07	2.86E-06	-2.92E-06	-5.56E-08	7.26E-06	1.07E-05	1.79E-05	-6.32E-06	-4.30E-06	-1.06E-05	3.97E-05	1.75E-05	5.71E-05	-4.14E-16	3.93E-16	-2.07E-17	1.48E-05	4.55E-06	1.94E-05	5.67E-05	2.29E-05	7.96E-05	3.37E-05	1.37E-05	4.74E-05	-1.44E-07	9.11E-07	7.67E-07	-4.69E-06	-1.78E-06	-6.47E-06	8.93E-07	-1.19E-06	-2.96E-07	1.05E-05	-8.46E-06	2.07E-06	-6.93E-06	-2.29E-07	-7.16E-06	-1.24E-05	-1.32E-05	-2.56E-05	1.17E-05	4.35E-06	1.61E-05	-1.23E-15	-3.51E-16	-1.58E-15	1.03E-05	1.36E-06	1.17E-05	1.33E-05	3.63E-06	1.69E-05	7.25E-06	2.68E-06	9.93E-06	9.66E-06	-3.85E-06	5.81E-06	6.15E-06	-1.90E-06	4.25E-06	5.63E-06	-1.40E-06	4.23E-06	5.80E-06	-2.30E-06	3.49E-06	1.23E-06	6.25E-07	1.86E-06	1
-0.28	-8.04E-06	-1.15E-05	-1.96E-05	1.40E-04	4.91E-05	1.89E-04	1.29E-16	-2.14E-16	-8.54E-17	2.34E-04	1.16E-04	3.50E-04	1.60E-04	8.04E-05	2.41E-04	9.17E-05	6.76E-05	1.59E-04	1.20E-05	-9.13E-06	2.83E-06	-1.72E-05	5.11E-06	-1.21E-05	-3.31E-05	-1.08E-05	-4.39E-05	-6.11E-06	5.39E-06	-7.16E-07	-7.97E-05	-1.55E-05	-9.52E-05	8.12E-05	3.94E-05	1.21E-04	1.05E-04	3.35E-05	1.39E-04	-7.79E-16	4.96E-16	-2.83E-16	6.71E-05	1.73E-05	8.43E-05	1.01E-04	3.14E-05	1.33E-04	-2.41E-05	-8.81E-06	-3.29E-05	-1.73E-06	-1.12E-05	-1.29E-05	-4.06E-06	-1.30E-06	-5.36E-06	2.50E-06	-2.88E-06	-3.78E-07	3.21E-06	-2.63E-06	5.82E-07	8.02E-06	1.15E-05	1.95E-05	-6.32E-06	-5.22E-06	-1.15E-05	4.08E-05	1.80E-05	5.87E-05	-4.39E-16	4.03E-16	-3.57E-17	1.37E-05	3.45E-06	1.71E-05	5.76E-05	2.35E-05	8.10E-05	3.52E-05	1.44E-05	4.95E-05	1.29E-07	1.37E-06	1.50E-06	-4.48E-06	-1.79E-06	-6.27E-06	1.92E-06	-1.07E-06	8.42E-07	1.10E-05	-8.68E-06	2.32E-06	-6.52E-06	8.23E-08	-6.44E-06	-1.38E-05	-1.50E-05	-2.88E-05	1.24E-05	4.16E-06	1.65E-05	-1.20E-15	-3.10E-16	-1.52E-15	1.09E-05	1.19E-06	1.21E-05	1.46E-05	3.64E-06	1.82E-05	8.55E-06	3.09E-06	1.16E-05	1.06E-05	-3.92E-06	6.69E-06	6.88E-06	-1.94E-06	4.94E-06	6.06E-06	-1.36E-06	4.69E-06	6.49E-06	-2.33E-06	4.16E-06	2.14E-06	4.34E-07	2.57E-06	1
-0.24	-7.35E-06	-1.31E-05	-2.04E-05	1.47E-04	5.12E-05	1.98E-04	1.44E-16	-2.30E-16	-8.55E-17	2.44E-04	1.20E-04	3.64E-04	1.70E-04	8.46E-05	2.55E-04	9.74E-05	7.11E-05	1.68E-04	1.41E-05	-9.04E-06	5.01E-06	-1.73E-05	5.51E-06	-1.17E-05	-3.42E-05	-1.11E-05	-4.53E-05	-4.96E-06	5.79E-06	8.33E-07	-8.20E-05	-1.62E-05	-9.82E-05	8.42E-05	3.99E-05	1.24E-04	1.09E-04	3.41E-05	1.43E-04	-6.10E-16	4.67E-16	-1.43E-16	6.81E-05	1.71E-05	8.52E-05	1.05E-04	3.22E-05	1.38E-04	-2.45E-05	-9.00E-06	-3.35E-05	-1.73E-06	-1.14E-05	-1.31E-05	-4.38E-06	-1.06E-06	-5.43E-06	3.08E-06	-2.85E-06	2.26E-07	3.57E-06	-2.32E-06	1.25E-06	8.71E-06	1.23E-05	2.10E-05	-6.31E-06	-6.11E-06	-1.24E-05	4.18E-05	1.84E-05	6.03E-05	-4.62E-16	4.10E-16	-5.14E-17	1.26E-05	2.43E-06	1.50E-05	5.84E-05	2.40E-05	8.23E-05	3.66E-05	1.50E-05	5.16E-05	4.04E-07	1.84E-06	2.24E-06	-4.27E-06	-1.77E-06	-6.04E-06	2.91E-06	-9.64E-07	1.95E-06	1.14E-05	-8.82E-06	2.58E-06	-6.10E-06	4.01E-07	-5.70E-06	-1.51E-05	-1.68E-05	-3.19E-05	1.30E-05	4.02E-06	1.70E-05	-1.17E-15	-2.64E-16	-1.43E-15	1.13E-05	1.06E-06	1.24E-05	1.59E-05	3.69E-06	1.96E-05	9.85E-06	3.51E-06	1.34E-05	1.15E-05	-3.97E-06	7.57E-06	7.58E-06	-1.96E-06	5.62E-06	6.48E-06	-1.32E-06	5.16E-06	7.20E-06	-2.34E-06	4.86E-06	3.09E-06	2.27E-07	3.31E-06	1
-0.2	-6.54E-06	-1.45E-05	-2.10E-05	1.53E-04	5.31E-05	2.06E-04	1.60E-16	-2.45E-16	-8.52E-17	2.54E-04	1.24E-04	3.78E-04	1.79E-04	8.87E-05	2.68E-04	1.03E-04	7.43E-05	1.77E-04	1.61E-05	-8.84E-06	7.29E-06	-1.73E-05	5.88E-06	-1.14E-05	-3.53E-05	-1.13E-05	-4.66E-05	-3.83E-06	6.15E-06	2.32E-06	-8.39E-05	-1.68E-05	-1.01E-04	8.68E-05	4.03E-05	1.27E-04	1.12E-04	3.47E-05	1.47E-04	-4.26E-16	4.32E-16	6.91E-18	6.89E-05	1.69E-05	8.58E-05	1.09E-04	3.30E-05	1.42E-04	-2.48E-05	-9.07E-06	-3.38E-05	-1.70E-06	-1.15E-05	-1.32E-05	-4.70E-06	-8.06E-07	-5.51E-06	3.64E-06	-2.82E-06	8.24E-07	3.93E-06	-1.99E-06	1.94E-06	9.33E-06	1.30E-05	2.23E-05	-6.31E-06	-6.94E-06	-1.33E-05	4.28E-05	1.89E-05	6.17E-05	-4.82E-16	4.15E-16	-6.77E-17	1.16E-05	1.49E-06	1.31E-05	5.91E-05	2.44E-05	8.35E-05	3.80E-05	1.56E-05	5.36E-05	6.79E-07	2.31E-06	2.99E-06	-4.05E-06	-1.73E-06	-5.78E-06	3.88E-06	-8.64E-07	3.02E-06	1.17E-05	-8.89E-06	2.84E-06	-5.68E-06	7.24E-07	-4.96E-06	-1.65E-05	-1.84E-05	-3.48E-05	1.36E-05	3.92E-06	1.76E-05	-1.12E-15	-2.13E-16	-1.33E-15	1.18E-05	9.77E-07	1.28E-05	1.72E-05	3.78E-06	2.10E-05	1.11E-05	3.94E-06	1.51E-05	1.24E-05	-4.00E-06	8.42E-06	8.27E-06	-1.98E-06	6.29E-06	6.88E-06	-1.26E-06	5.63E-06	7.92E-06	-2.35E-06	5.57E-06	4.07E-06	5.32E-09	4.07E-06	1
-0.16	-5.60E-06	-1.57E-05	-2.13E-05	1.59E-04	5.51E-05	2.14E-04	1.75E-16	-2.59E-16	-8.43E-17	2.63E-04	1.28E-04	3.91E-04	1.88E-04	9.26E-05	2.81E-04	1.08E-04	7.74E-05	1.85E-04	1.82E-05	-8.51E-06	9.66E-06	-1.74E-05	6.22E-06	-1.12E-05	-3.62E-05	-1.15E-05	-4.77E-05	-2.73E-06	6.47E-06	3.74E-06	-8.56E-05	-1.74E-05	-1.03E-04	8.89E-05	4.04E-05	1.29E-04	1.14E-04	3.51E-05	1.50E-04	-2.28E-16	3.93E-16	1.65E-16	6.95E-05	1.67E-05	8.62E-05	1.12E-04	3.37E-05	1.46E-04	-2.47E-05	-9.00E-06	-3.37E-05	-1.66E-06	-1.15E-05	-1.31E-05	-5.03E-06	-5.52E-07	-5.59E-06	4.18E-06	-2.76E-06	1.41E-06	4.29E-06	-1.64E-06	2.65E-06	9.87E-06	1.37E-05	2.36E-05	-6.31E-06	-7.71E-06	-1.40E-05	4.37E-05	1.94E-05	6.31E-05	-5.01E-16	4.17E-16	-8.44E-17	1.07E-05	6.40E-07	1.14E-05	5.97E-05	2.49E-05	8.45E-05	3.94E-05	1.62E-05	5.56E-05	9.53E-07	2.80E-06	3.75E-06	-3.83E-06	-1.67E-06	-5.50E-06	4.81E-06	-7.74E-07	4.04E-06	1.20E-05	-8.88E-06	3.11E-06	-5.26E-06	1.05E-06	-4.21E-06	-1.78E-05	-1.99E-05	-3.77E-05	1.43E-05	3.87E-06	1.81E-05	-1.06E-15	-1.58E-16	-1.22E-15	1.22E-05	9.35E-07	1.31E-05	1.84E-05	3.92E-06	2.24E-05	1.24E-05	4.37E-06	1.68E-05	1.33E-05	-4.02E-06	9.26E-06	8.94E-06	-1.98E-06	6.95E-06	7.28E-06	-1.19E-06	6.09E-06	8.64E-06	-2.34E-06	6.30E-06	5.08E-06	-2.28E-07	4.86E-06	1
-0.12	-4.54E-06	-1.68E-05	-2.13E-05	1.64E-04	5.70E-05	2.21E-04	1.89E-16	-2.72E-16	-8.30E-17	2.71E-04	1.31E-04	4.02E-04	1.96E-04	9.64E-05	2.92E-04	1.13E-04	8.03E-05	1.93E-04	2.02E-05	-8.06E-06	1.21E-05	-1.76E-05	6.52E-06	-1.11E-05	-3.70E-05	-1.17E-05	-4.87E-05	-1.67E-06	6.73E-06	5.07E-06	-8.69E-05	-1.80E-05	-1.05E-04	9.04E-05	4.03E-05	1.31E-04	1.16E-04	3.55E-05	1.52E-04	-1.77E-17	3.49E-16	3.32E-16	6.99E-05	1.65E-05	8.63E-05	1.15E-04	3.44E-05	1.49E-04	-2.44E-05	-8.81E-06	-3.32E-05	-1.58E-06	-1.14E-05	-1.30E-05	-5.37E-06	-2.96E-07	-5.67E-06	4.68E-06	-2.70E-06	1.99E-06	4.64E-06	-1.27E-06	3.38E-06	1.03E-05	1.43E-05	2.46E-05	-6.31E-06	-8.42E-06	-1.47E-05	4.45E-05	1.99E-05	6.44E-05	-5.17E-16	4.16E-16	-1.01E-16	9.96E-06	-1.01E-07	9.86E-06	6.02E-05	2.52E-05	8.55E-05	4.08E-05	1.67E-05	5.75E-05	1.22E-06	3.28E-06	4.51E-06	-3.62E-06	-1.58E-06	-5.19E-06	5.70E-06	-6.94E-07	5.00E-06	1.22E-05	-8.79E-06	3.38E-06	-4.85E-06	1.38E-06	-3.47E-06	-1.91E-05	-2.13E-05	-4.03E-05	1.49E-05	3.87E-06	1.88E-05	-9.93E-16	-9.87E-17	-1.09E-15	1.25E-05	9.41E-07	1.35E-05	1.97E-05	4.11E-06	2.38E-05	1.37E-05	4.80E-06	1.85E-05	1.41E-05	-4.02E-06	1.01E-05	9.58E-06	-1.98E-06	7.60E-06	7.66E-06	-1.10E-06	6.56E-06	9.36E-06	-2.32E-06	7.04E-06	6.13E-06	-4.69E-07	5.66E-06	1
-0.08	-3.35E-06	-1.77E-05	-2.10E-05	1.69E-04	5.88E-05	2.28E-04	2.03E-16	-2.84E-16	-8.12E-17	2.78E-04	1.34E-04	4.12E-04	2.03E-04	1.00E-04	3.04E-04	1.17E-04	8.30E-05	2.00E-04	2.21E-05	-7.48E-06	1.47E-05	-1.78E-05	6.78E-06	-1.10E-05	-3.78E-05	-1.17E-05	-4.95E-05	-6.51E-07	6.95E-06	6.30E-06	-8.78E-05	-1.85E-05	-1.06E-04	9.15E-05	3.99E-05	1.31E-04	1.18E-04	3.58E-05	1.54E-04	2.02E-16	3.02E-16	5.04E-16	7.00E-05	1.62E-05	8.62E-05	1.17E-04	3.50E-05	1.52E-04	-2.38E-05	-8.47E-06	-3.22E-05	-1.49E-06	-1.13E-05	-1.28E-05	-5.72E-06	-3.91E-08	-5.76E-06	5.16E-06	-2.61E-06	2.55E-06	5.00E-06	-8.81E-07	4.11E-06	1.07E-05	1.49E-05	2.56E-05	-6.31E-06	-9.06E-06	-1.54E-05	4.53E-05	2.04E-05	6.57E-05	-5.31E-16	4.12E-16	-1.19E-16	9.31E-06	-7.30E-07	8.58E-06	6.07E-05	2.56E-05	8.63E-05	4.21E-05	1.73E-05	5.94E-05	1.50E-06	3.77E-06	5.26E-06	-3.40E-06	-1.47E-06	-4.87E-06	6.53E-06	-6.24E-07	5.91E-06	1.23E-05	-8.62E-06	3.67E-06	-4.44E-06	1.70E-06	-2.74E-06	-2.03E-05	-2.25E-05	-4.28E-05	1.55E-05	3.93E-06	1.95E-05	-9.14E-16	-3.60E-17	-9.50E-16	1.28E-05	9.98E-07	1.38E-05	2.09E-05	4.35E-06	2.52E-05	1.49E-05	5.23E-06	2.01E-05	1.49E-05	-4.00E-06	1.09E-05	1.02E-05	-1.96E-06	8.23E-06	8.03E-06	-1.01E-06	7.02E-06	1.01E-05	-2.29E-06	7.80E-06	7.19E-06	-7.15E-07	6.47E-06	1
-0.04	-2.03E-06	-1.84E-05	-2.04E-05	1.73E-04	6.05E-05	2.33E-04	2.16E-16	-2.95E-16	-7.89E-17	2.84E-04	1.37E-04	4.22E-04	2.10E-04	1.04E-04	3.14E-04	1.21E-04	8.56E-05	2.07E-04	2.40E-05	-6.79E-06	1.73E-05	-1.80E-05	7.00E-06	-1.10E-05	-3.85E-05	-1.18E-05	-5.02E-05	3.13E-07	7.12E-06	7.43E-06	-8.85E-05	-1.90E-05	-1.07E-04	9.20E-05	3.94E-05	1.31E-04	1.19E-04	3.60E-05	1.55E-04	4.30E-16	2.50E-16	6.81E-16	7.00E-05	1.60E-05	8.59E-05	1.19E-04	3.55E-05	1.55E-04	-2.29E-05	-8.01E-06	-3.09E-05	-1.38E-06	-1.10E-05	-1.24E-05	-6.08E-06	2.18E-07	-5.86E-06	5.60E-06	-2.51E-06	3.09E-06	5.34E-06	-4.80E-07	4.86E-06	1.10E-05	1.54E-05	2.63E-05	-6.31E-06	-9.63E-06	-1.59E-05	4.60E-05	2.09E-05	6.69E-05	-5.41E-16	4.06E-16	-1.36E-16	8.79E-06	-1.24E-06	7.55E-06	6.10E-05	2.59E-05	8.70E-05	4.34E-05	1.78E-05	6.12E-05	1.76E-06	4.26E-06	6.02E-06	-3.19E-06	-1.34E-06	-4.53E-06	7.32E-06	-5.66E-07	6.75E-06	1.23E-05	-8.38E-06	3.96E-06	-4.03E-06	2.02E-06	-2.01E-06	-2.15E-05	-2.36E-05	-4.51E-05	1.62E-05	4.04E-06	2.02E-05	-8.27E-16	2.93E-17	-7.98E-16	1.31E-05	1.11E-06	1.42E-05	2.20E-05	4.64E-06	2.66E-05	1.61E-05	5.66E-06	2.18E-05	1.56E-05	-3.97E-06	1.16E-05	1.08E-05	-1.94E-06	8.85E-06	8.39E-06	-9.12E-07	7.47E-06	1.08E-05	-2.26E-06	8.57E-06	8.27E-06	-9.63E-07	7.31E-06	1
0	-5.91E-07	-1.89E-05	-1.95E-05	1.77E-04	6.22E-05	2.39E-04	2.28E-16	-3.04E-16	-7.62E-17	2.90E-04	1.40E-04	4.29E-04	2.16E-04	1.07E-04	3.23E-04	1.25E-04	8.79E-05	2.13E-04	2.59E-05	-5.97E-06	1.99E-05	-1.83E-05	7.19E-06	-1.11E-05	-3.91E-05	-1.17E-05	-5.08E-05	1.22E-06	7.24E-06	8.46E-06	-8.88E-05	-1.94E-05	-1.08E-04	9.20E-05	3.86E-05	1.31E-04	1.19E-04	3.61E-05	1.55E-04	6.64E-16	1.97E-16	8.61E-16	6.97E-05	1.58E-05	8.54E-05	1.21E-04	3.60E-05	1.57E-04	-2.17E-05	-7.41E-06	-2.91E-05	-1.25E-06	-1.07E-05	-1.20E-05	-6.44E-06	4.73E-07	-5.97E-06	6.00E-06	-2.40E-06	3.60E-06	5.68E-06	-6.66E-08	5.61E-06	1.11E-05	1.58E-05	2.69E-05	-6.32E-06	-1.01E-05	-1.64E-05	4.67E-05	2.14E-05	6.81E-05	-5.49E-16	3.96E-16	-1.52E-16	8.40E-06	-1.63E-06	6.77E-06	6.13E-05	2.62E-05	8.76E-05	4.46E-05	1.83E-05	6.29E-05	2.03E-06	4.74E-06	6.77E-06	-2.98E-06	-1.19E-06	-4.16E-06	8.05E-06	-5.19E-07	7.53E-06	1.23E-05	-8.06E-06	4.26E-06	-3.63E-06	2.33E-06	-1.30E-06	-2.27E-05	-2.45E-05	-4.72E-05	1.68E-05	4.21E-06	2.10E-05	-7.32E-16	9.67E-17	-6.35E-16	1.33E-05	1.27E-06	1.46E-05	2.31E-05	4.98E-06	2.81E-05	1.73E-05	6.09E-06	2.34E-05	1.62E-05	-3.91E-06	1.23E-05	1.13E-05	-1.90E-06	9.44E-06	8.73E-06	-8.01E-07	7.93E-06	1.15E-05	-2.21E-06	9.34E-06	9.36E-06	-1.21E-06	8.15E-06	1
0.04	9.68E-07	-1.93E-05	-1.83E-05	1.80E-04	6.38E-05	2.44E-04	2.40E-16	-3.13E-16	-7.31E-17	2.95E-04	1.42E-04	4.36E-04	2.22E-04	1.10E-04	3.32E-04	1.28E-04	9.01E-05	2.18E-04	2.77E-05	-5.04E-06	2.26E-05	-1.86E-05	7.34E-06	-1.13E-05	-3.96E-05	-1.17E-05	-5.13E-05	2.06E-06	7.30E-06	9.36E-06	-8.89E-05	-1.98E-05	-1.09E-04	9.15E-05	3.76E-05	1.29E-04	1.19E-04	3.62E-05	1.55E-04	9.01E-16	1.41E-16	1.04E-15	6.92E-05	1.55E-05	8.48E-05	1.22E-04	3.65E-05	1.58E-04	-2.03E-05	-6.69E-06	-2.70E-05	-1.10E-06	-1.03E-05	-1.14E-05	-6.82E-06	7.26E-07	-6.09E-06	6.36E-06	-2.27E-06	4.09E-06	6.01E-06	3.58E-07	6.37E-06	1.12E-05	1.62E-05	2.74E-05	-6.32E-06	-1.05E-05	-1.69E-05	4.73E-05	2.19E-05	6.92E-05	-5.53E-16	3.84E-16	-1.69E-16	8.15E-06	-1.89E-06	6.26E-06	6.16E-05	2.65E-05	8.81E-05	4.59E-05	1.87E-05	6.46E-05	2.29E-06	5.22E-06	7.51E-06	-2.77E-06	-1.01E-06	-3.79E-06	8.72E-06	-4.82E-07	8.23E-06	1.22E-05	-7.67E-06	4.57E-06	-3.25E-06	2.64E-06	-6.09E-07	-2.38E-05	-2.53E-05	-4.91E-05	1.74E-05	4.44E-06	2.19E-05	-6.30E-16	1.65E-16	-4.64E-16	1.35E-05	1.49E-06	1.50E-05	2.42E-05	5.37E-06	2.96E-05	1.85E-05	6.51E-06	2.50E-05	1.69E-05	-3.85E-06	1.30E-05	1.19E-05	-1.86E-06	1.00E-05	9.06E-06	-6.82E-07	8.38E-06	1.23E-05	-2.15E-06	1.01E-05	1.05E-05	-1.45E-06	9.01E-06	1
0.08	2.64E-06	-1.94E-05	-1.68E-05	1.82E-04	6.53E-05	2.48E-04	2.50E-16	-3.19E-16	-6.96E-17	2.98E-04	1.43E-04	4.42E-04	2.27E-04	1.13E-04	3.40E-04	1.31E-04	9.21E-05	2.23E-04	2.94E-05	-3.99E-06	2.54E-05	-1.91E-05	7.45E-06	-1.16E-05	-4.00E-05	-1.16E-05	-5.16E-05	2.84E-06	7.32E-06	1.02E-05	-8.86E-05	-2.01E-05	-1.09E-04	9.04E-05	3.64E-05	1.27E-04	1.18E-04	3.62E-05	1.54E-04	1.14E-15	8.35E-17	1.22E-15	6.86E-05	1.53E-05	8.39E-05	1.23E-04	3.69E-05	1.60E-04	-1.86E-05	-5.84E-06	-2.44E-05	-9.30E-07	-9.83E-06	-1.08E-05	-7.20E-06	9.75E-07	-6.23E-06	6.67E-06	-2.12E-06	4.56E-06	6.32E-06	7.91E-07	7.11E-06	1.12E-05	1.65E-05	2.77E-05	-6.32E-06	-1.09E-05	-1.72E-05	4.78E-05	2.24E-05	7.02E-05	-5.54E-16	3.70E-16	-1.84E-16	8.04E-06	-2.03E-06	6.01E-06	6.18E-05	2.68E-05	8.86E-05	4.71E-05	1.92E-05	6.62E-05	2.55E-06	5.69E-06	8.24E-06	-2.57E-06	-8.24E-07	-3.39E-06	9.33E-06	-4.56E-07	8.87E-06	1.21E-05	-7.20E-06	4.89E-06	-2.87E-06	2.93E-06	6.49E-08	-2.49E-05	-2.59E-05	-5.08E-05	1.81E-05	4.73E-06	2.28E-05	-5.22E-16	2.34E-16	-2.87E-16	1.36E-05	1.76E-06	1.53E-05	2.52E-05	5.81E-06	3.10E-05	1.96E-05	6.93E-06	2.65E-05	1.74E-05	-3.76E-06	1.37E-05	1.24E-05	-1.80E-06	1.06E-05	9.38E-06	-5.55E-07	8.83E-06	1.30E-05	-2.08E-06	1.09E-05	1.16E-05	-1.67E-06	9.89E-06	1
0.12	4.43E-06	-1.94E-05	-1.50E-05	1.84E-04	6.68E-05	2.51E-04	2.58E-16	-3.24E-16	-6.57E-17	3.01E-04	1.45E-04	4.46E-04	2.31E-04	1.16E-04	3.47E-04	1.33E-04	9.39E-05	2.27E-04	3.11E-05	-2.84E-06	2.82E-05	-1.95E-05	7.53E-06	-1.20E-05	-4.04E-05	-1.14E-05	-5.18E-05	3.54E-06	7.28E-06	1.08E-05	-8.81E-05	-2.04E-05	-1.08E-04	8.89E-05	3.49E-05	1.24E-04	1.16E-04	3.61E-05	1.52E-04	1.38E-15	2.58E-17	1.40E-15	6.78E-05	1.51E-05	8.29E-05	1.23E-04	3.73E-05	1.60E-04	-1.67E-05	-4.86E-06	-2.15E-05	-7.48E-07	-9.29E-06	-1.00E-05	-7.59E-06	1.22E-06	-6.37E-06	6.94E-06	-1.95E-06	4.99E-06	6.62E-06	1.23E-06	7.85E-06	1.11E-05	1.68E-05	2.79E-05	-6.32E-06	-1.11E-05	-1.74E-05	4.83E-05	2.30E-05	7.12E-05	-5.52E-16	3.53E-16	-1.99E-16	8.07E-06	-2.03E-06	6.03E-06	6.20E-05	2.70E-05	8.90E-05	4.82E-05	1.96E-05	6.78E-05	2.81E-06	6.15E-06	8.96E-06	-2.37E-06	-6.16E-07	-2.99E-06	9.88E-06	-4.39E-07	9.44E-06	1.19E-05	-6.67E-06	5.22E-06	-2.49E-06	3.21E-06	7.17E-07	-2.59E-05	-2.64E-05	-5.23E-05	1.87E-05	5.07E-06	2.38E-05	-4.09E-16	3.03E-16	-1.06E-16	1.37E-05	2.09E-06	1.57E-05	2.62E-05	6.30E-06	3.25E-05	2.07E-05	7.34E-06	2.80E-05	1.80E-05	-3.66E-06	1.43E-05	1.28E-05	-1.74E-06	1.11E-05	9.70E-06	-4.21E-07	9.27E-06	1.37E-05	-2.00E-06	1.17E-05	1.27E-05	-1.88E-06	1.08E-05	1
0.16	6.33E-06	-1.92E-05	-1.29E-05	1.86E-04	6.82E-05	2.54E-04	2.66E-16	-3.27E-16	-6.16E-17	3.03E-04	1.46E-04	4.50E-04	2.34E-04	1.19E-04	3.53E-04	1.35E-04	9.55E-05	2.31E-04	3.27E-05	-1.60E-06	3.11E-05	-2.00E-05	7.56E-06	-1.25E-05	-4.07E-05	-1.12E-05	-5.19E-05	4.17E-06	7.20E-06	1.14E-05	-8.73E-05	-2.06E-05	-1.08E-04	8.69E-05	3.33E-05	1.20E-04	1.15E-04	3.60E-05	1.50E-04	1.61E-15	-3.16E-17	1.58E-15	6.68E-05	1.50E-05	8.18E-05	1.23E-04	3.76E-05	1.61E-04	-1.45E-05	-3.78E-06	-1.83E-05	-5.52E-07	-8.68E-06	-9.23E-06	-7.99E-06	1.46E-06	-6.54E-06	7.17E-06	-1.77E-06	5.40E-06	6.90E-06	1.68E-06	8.58E-06	1.09E-05	1.70E-05	2.79E-05	-6.31E-06	-1.13E-05	-1.76E-05	4.87E-05	2.35E-05	7.22E-05	-5.46E-16	3.33E-16	-2.13E-16	8.23E-06	-1.92E-06	6.31E-06	6.21E-05	2.72E-05	8.93E-05	4.93E-05	2.00E-05	6.93E-05	3.07E-06	6.60E-06	9.67E-06	-2.18E-06	-3.94E-07	-2.57E-06	1.04E-05	-4.30E-07	9.94E-06	1.16E-05	-6.08E-06	5.56E-06	-2.13E-06	3.48E-06	1.35E-06	-2.69E-05	-2.67E-05	-5.35E-05	1.94E-05	5.47E-06	2.49E-05	-2.92E-16	3.71E-16	7.82E-17	1.37E-05	2.47E-06	1.62E-05	2.72E-05	6.83E-06	3.40E-05	2.18E-05	7.74E-06	2.95E-05	1.84E-05	-3.55E-06	1.49E-05	1.33E-05	-1.67E-06	1.16E-05	1.00E-05	-2.81E-07	9.72E-06	1.44E-05	-1.91E-06	1.25E-05	1.37E-05	-2.08E-06	1.17E-05	1
0.2	8.33E-06	-1.88E-05	-1.05E-05	1.87E-04	6.95E-05	2.57E-04	2.72E-16	-3.29E-16	-5.71E-17	3.05E-04	1.47E-04	4.52E-04	2.37E-04	1.21E-04	3.59E-04	1.37E-04	9.70E-05	2.34E-04	3.42E-05	-2.56E-07	3.40E-05	-2.06E-05	7.56E-06	-1.31E-05	-4.09E-05	-1.09E-05	-5.19E-05	4.73E-06	7.07E-06	1.18E-05	-8.62E-05	-2.08E-05	-1.07E-04	8.44E-05	3.16E-05	1.16E-04	1.12E-04	3.58E-05	1.48E-04	1.83E-15	-8.79E-17	1.74E-15	6.57E-05	1.48E-05	8.05E-05	1.23E-04	3.79E-05	1.61E-04	-1.21E-05	-2.59E-06	-1.47E-05	-3.46E-07	-8.00E-06	-8.35E-06	-8.40E-06	1.69E-06	-6.71E-06	7.34E-06	-1.57E-06	5.77E-06	7.16E-06	2.12E-06	9.29E-06	1.06E-05	1.71E-05	2.77E-05	-6.29E-06	-1.14E-05	-1.77E-05	4.91E-05	2.41E-05	7.32E-05	-5.37E-16	3.12E-16	-2.25E-16	8.52E-06	-1.69E-06	6.84E-06	6.22E-05	2.74E-05	8.96E-05	5.04E-05	2.03E-05	7.08E-05	3.33E-06	7.04E-06	1.04E-05	-1.99E-06	-1.59E-07	-2.15E-06	1.08E-05	-4.29E-07	1.04E-05	1.13E-05	-5.43E-06	5.92E-06	-1.77E-06	3.72E-06	1.96E-06	-2.78E-05	-2.68E-05	-5.46E-05	2.01E-05	5.92E-06	2.60E-05	-1.74E-16	4.36E-16	2.62E-16	1.37E-05	2.90E-06	1.66E-05	2.81E-05	7.40E-06	3.55E-05	2.28E-05	8.13E-06	3.09E-05	1.89E-05	-3.42E-06	1.55E-05	1.37E-05	-1.59E-06	1.21E-05	1.03E-05	-1.35E-07	1.02E-05	1.51E-05	-1.81E-06	1.33E-05	1.48E-05	-2.24E-06	1.26E-05	1
0.24	1.04E-05	-1.83E-05	-7.89E-06	1.88E-04	7.08E-05	2.59E-04	2.76E-16	-3.29E-16	-5.25E-17	3.06E-04	1.48E-04	4.54E-04	2.40E-04	1.24E-04	3.64E-04	1.39E-04	9.83E-05	2.37E-04	3.57E-05	1.17E-06	3.69E-05	-2.12E-05	7.53E-06	-1.37E-05	-4.11E-05	-1.06E-05	-5.17E-05	5.23E-06	6.90E-06	1.21E-05	-8.50E-05	-2.10E-05	-1.06E-04	8.14E-05	2.96E-05	1.11E-04	1.09E-04	3.55E-05	1.45E-04	2.05E-15	-1.42E-16	1.90E-15	6.45E-05	1.47E-05	7.91E-05	1.22E-04	3.82E-05	1.61E-04	-9.48E-06	-1.31E-06	-1.08E-05	-1.30E-07	-7.27E-06	-7.40E-06	-8.82E-06	1.91E-06	-6.91E-06	7.47E-06	-1.35E-06	6.12E-06	7.40E-06	2.57E-06	9.97E-06	1.03E-05	1.72E-05	2.75E-05	-6.26E-06	-1.14E-05	-1.77E-05	4.94E-05	2.46E-05	7.41E-05	-5.24E-16	2.88E-16	-2.36E-16	8.94E-06	-1.34E-06	7.60E-06	6.22E-05	2.76E-05	8.98E-05	5.15E-05	2.07E-05	7.22E-05	3.59E-06	7.46E-06	1.10E-05	-1.80E-06	8.76E-08	-1.71E-06	1.12E-05	-4.35E-07	1.07E-05	1.10E-05	-4.72E-06	6.28E-06	-1.41E-06	3.95E-06	2.54E-06	-2.86E-05	-2.68E-05	-5.54E-05	2.07E-05	6.42E-06	2.72E-05	-5.43E-17	4.98E-16	4.44E-16	1.37E-05	3.39E-06	1.71E-05	2.90E-05	8.01E-06	3.70E-05	2.38E-05	8.50E-06	3.23E-05	1.93E-05	-3.28E-06	1.60E-05	1.41E-05	-1.51E-06	1.25E-05	1.06E-05	1.49E-08	1.06E-05	1.58E-05	-1.70E-06	1.41E-05	1.59E-05	-2.38E-06	1.35E-05	1
0.28	1.26E-05	-1.77E-05	-5.05E-06	1.88E-04	7.20E-05	2.60E-04	2.79E-16	-3.27E-16	-4.76E-17	3.06E-04	1.49E-04	4.55E-04	2.42E-04	1.26E-04	3.68E-04	1.40E-04	9.95E-05	2.39E-04	3.71E-05	2.67E-06	3.98E-05	-2.19E-05	7.47E-06	-1.45E-05	-4.12E-05	-1.03E-05	-5.15E-05	5.65E-06	6.69E-06	1.23E-05	-8.35E-05	-2.11E-05	-1.05E-04	7.81E-05	2.75E-05	1.06E-04	1.06E-04	3.53E-05	1.42E-04	2.25E-15	-1.94E-16	2.06E-15	6.31E-05	1.45E-05	7.76E-05	1.22E-04	3.85E-05	1.60E-04	-6.68E-06	6.53E-08	-6.61E-06	9.21E-08	-6.49E-06	-6.40E-06	-9.25E-06	2.13E-06	-7.12E-06	7.55E-06	-1.12E-06	6.44E-06	7.62E-06	3.02E-06	1.06E-05	9.82E-06	1.72E-05	2.70E-05	-6.22E-06	-1.13E-05	-1.76E-05	4.97E-05	2.52E-05	7.49E-05	-5.08E-16	2.62E-16	-2.46E-16	9.47E-06	-8.79E-07	8.59E-06	6.23E-05	2.77E-05	9.00E-05	5.25E-05	2.10E-05	7.35E-05	3.85E-06	7.87E-06	1.17E-05	-1.61E-06	3.42E-07	-1.27E-06	1.15E-05	-4.45E-07	1.10E-05	1.06E-05	-3.97E-06	6.66E-06	-1.06E-06	4.16E-06	3.10E-06	-2.93E-05	-2.67E-05	-5.60E-05	2.14E-05	6.97E-06	2.84E-05	6.47E-17	5.57E-16	6.22E-16	1.36E-05	3.92E-06	1.75E-05	2.98E-05	8.66E-06	3.84E-05	2.48E-05	8.86E-06	3.37E-05	1.96E-05	-3.12E-06	1.65E-05	1.44E-05	-1.43E-06	1.30E-05	1.09E-05	1.68E-07	1.10E-05	1.65E-05	-1.58E-06	1.49E-05	1.69E-05	-2.48E-06	1.44E-05	1
0.32	1.49E-05	-1.69E-05	-1.99E-06	1.88E-04	7.32E-05	2.61E-04	2.80E-16	-3.23E-16	-4.25E-17	3.06E-04	1.49E-04	4.55E-04	2.43E-04	1.28E-04	3.72E-04	1.41E-04	1.01E-04	2.41E-04	3.85E-05	4.23E-06	4.27E-05	-2.27E-05	7.37E-06	-1.53E-05	-4.13E-05	-9.96E-06	-5.12E-05	6.00E-06	6.44E-06	1.24E-05	-8.18E-05	-2.12E-05	-1.03E-04	7.44E-05	2.53E-05	9.96E-05	1.03E-04	3.49E-05	1.38E-04	2.44E-15	-2.42E-16	2.20E-15	6.16E-05	1.44E-05	7.61E-05	1.20E-04	3.87E-05	1.59E-04	-3.71E-06	1.51E-06	-2.19E-06	3.19E-07	-5.67E-06	-5.36E-06	-9.68E-06	2.34E-06	-7.34E-06	7.59E-06	-8.65E-07	6.72E-06	7.80E-06	3.47E-06	1.13E-05	9.30E-06	1.72E-05	2.65E-05	-6.16E-06	-1.12E-05	-1.74E-05	5.00E-05	2.57E-05	7.57E-05	-4.88E-16	2.35E-16	-2.53E-16	1.01E-05	-3.22E-07	9.78E-06	6.23E-05	2.79E-05	9.02E-05	5.34E-05	2.13E-05	7.48E-05	4.12E-06	8.26E-06	1.24E-05	-1.43E-06	6.03E-07	-8.22E-07	1.18E-05	-4.58E-07	1.13E-05	1.02E-05	-3.18E-06	7.06E-06	-7.06E-07	4.35E-06	3.64E-06	-3.00E-05	-2.64E-05	-5.64E-05	2.21E-05	7.56E-06	2.97E-05	1.82E-16	6.11E-16	7.93E-16	1.35E-05	4.49E-06	1.80E-05	3.06E-05	9.33E-06	3.99E-05	2.58E-05	9.21E-06	3.50E-05	1.99E-05	-2.95E-06	1.70E-05	1.47E-05	-1.34E-06	1.34E-05	1.12E-05	3.24E-07	1.15E-05	1.71E-05	-1.46E-06	1.57E-05	1.79E-05	-2.55E-06	1.53E-05	1
0.36	1.72E-05	-1.60E-05	1.25E-06	1.87E-04	7.43E-05	2.62E-04	2.80E-16	-3.17E-16	-3.73E-17	3.05E-04	1.49E-04	4.54E-04	2.44E-04	1.30E-04	3.75E-04	1.42E-04	1.01E-04	2.43E-04	3.98E-05	5.85E-06	4.57E-05	-2.34E-05	7.26E-06	-1.62E-05	-4.13E-05	-9.58E-06	-5.09E-05	6.29E-06	6.16E-06	1.25E-05	-8.00E-05	-2.13E-05	-1.01E-04	7.03E-05	2.29E-05	9.32E-05	9.91E-05	3.46E-05	1.34E-04	2.61E-15	-2.86E-16	2.32E-15	6.01E-05	1.44E-05	7.45E-05	1.19E-04	3.90E-05	1.58E-04	-5.86E-07	3.03E-06	2.44E-06	5.48E-07	-4.82E-06	-4.27E-06	-1.01E-05	2.54E-06	-7.59E-06	7.58E-06	-5.95E-07	6.98E-06	7.97E-06	3.91E-06	1.19E-05	8.71E-06	1.72E-05	2.59E-05	-6.08E-06	-1.10E-05	-1.71E-05	5.03E-05	2.63E-05	7.65E-05	-4.65E-16	2.06E-16	-2.58E-16	1.08E-05	3.25E-07	1.12E-05	6.23E-05	2.80E-05	9.03E-05	5.44E-05	2.16E-05	7.60E-05	4.39E-06	8.63E-06	1.30E-05	-1.23E-06	8.68E-07	-3.66E-07	1.20E-05	-4.73E-07	1.15E-05	9.83E-06	-2.36E-06	7.47E-06	-3.48E-07	4.52E-06	4.17E-06	-3.06E-05	-2.60E-05	-5.66E-05	2.29E-05	8.18E-06	3.10E-05	2.96E-16	6.60E-16	9.56E-16	1.34E-05	5.11E-06	1.85E-05	3.13E-05	1.00E-05	4.14E-05	2.67E-05	9.54E-06	3.62E-05	2.02E-05	-2.76E-06	1.74E-05	1.50E-05	-1.24E-06	1.38E-05	1.15E-05	4.81E-07	1.19E-05	1.78E-05	-1.32E-06	1.64E-05	1.88E-05	-2.57E-06	1.62E-05	1
0.4	1.96E-05	-1.50E-05	4.66E-06	1.87E-04	7.53E-05	2.62E-04	2.77E-16	-3.09E-16	-3.21E-17	3.03E-04	1.49E-04	4.53E-04	2.45E-04	1.32E-04	3.77E-04	1.42E-04	1.02E-04	2.44E-04	4.11E-05	7.51E-06	4.87E-05	-2.42E-05	7.11E-06	-1.71E-05	-4.13E-05	-9.18E-06	-5.04E-05	6.53E-06	5.85E-06	1.24E-05	-7.80E-05	-2.13E-05	-9.93E-05	6.59E-05	2.04E-05	8.63E-05	9.51E-05	3.42E-05	1.29E-04	2.76E-15	-3.25E-16	2.43E-15	5.85E-05	1.43E-05	7.28E-05	1.17E-04	3.92E-05	1.57E-04	2.66E-06	4.59E-06	7.25E-06	7.78E-07	-3.94E-06	-3.16E-06	-1.06E-05	2.73E-06	-7.85E-06	7.52E-06	-3.08E-07	7.21E-06	8.10E-06	4.34E-06	1.24E-05	8.07E-06	1.71E-05	2.52E-05	-5.98E-06	-1.08E-05	-1.67E-05	5.05E-05	2.68E-05	7.73E-05	-4.38E-16	1.76E-16	-2.61E-16	1.16E-05	1.05E-06	1.27E-05	6.23E-05	2.82E-05	9.04E-05	5.52E-05	2.19E-05	7.71E-05	4.67E-06	8.98E-06	1.37E-05	-1.04E-06	1.13E-06	9.53E-08	1.22E-05	-4.87E-07	1.17E-05	9.42E-06	-1.52E-06	7.90E-06	1.72E-08	4.66E-06	4.67E-06	-3.12E-05	-2.55E-05	-5.67E-05	2.36E-05	8.84E-06	3.24E-05	4.05E-16	7.02E-16	1.11E-15	1.33E-05	5.77E-06	1.90E-05	3.21E-05	1.07E-05	4.28E-05	2.76E-05	9.85E-06	3.75E-05	2.04E-05	-2.57E-06	1.78E-05	1.53E-05	-1.15E-06	1.42E-05	1.17E-05	6.38E-07	1.24E-05	1.84E-05	-1.18E-06	1.72E-05	1.97E-05	-2.55E-06	1.72E-05	1
0.44	2.21E-05	-1.39E-05	8.21E-06	1.86E-04	7.63E-05	2.62E-04	2.73E-16	-3.00E-16	-2.68E-17	3.02E-04	1.49E-04	4.51E-04	2.45E-04	1.34E-04	3.79E-04	1.42E-04	1.03E-04	2.46E-04	4.24E-05	9.20E-06	5.16E-05	-2.51E-05	6.95E-06	-1.81E-05	-4.12E-05	-8.76E-06	-4.99E-05	6.72E-06	5.52E-06	1.22E-05	-7.59E-05	-2.13E-05	-9.72E-05	6.12E-05	1.78E-05	7.90E-05	9.09E-05	3.39E-05	1.25E-04	2.89E-15	-3.58E-16	2.53E-15	5.68E-05	1.43E-05	7.11E-05	1.16E-04	3.94E-05	1.55E-04	6.02E-06	6.20E-06	1.22E-05	1.01E-06	-3.03E-06	-2.03E-06	-1.10E-05	2.92E-06	-8.12E-06	7.43E-06	-3.45E-09	7.42E-06	8.21E-06	4.77E-06	1.30E-05	7.37E-06	1.70E-05	2.44E-05	-5.85E-06	-1.05E-05	-1.63E-05	5.06E-05	2.73E-05	7.80E-05	-4.08E-16	1.45E-16	-2.62E-16	1.25E-05	1.85E-06	1.44E-05	6.22E-05	2.83E-05	9.05E-05	5.60E-05	2.21E-05	7.82E-05	4.95E-06	9.32E-06	1.43E-05	-8.37E-07	1.40E-06	5.61E-07	1.23E-05	-5.00E-07	1.18E-05	9.01E-06	-6.54E-07	8.35E-06	3.93E-07	4.77E-06	5.16E-06	-3.17E-05	-2.48E-05	-5.65E-05	2.44E-05	9.52E-06	3.39E-05	5.09E-16	7.38E-16	1.25E-15	1.31E-05	6.45E-06	1.96E-05	3.27E-05	1.15E-05	4.42E-05	2.85E-05	1.01E-05	3.87E-05	2.06E-05	-2.37E-06	1.83E-05	1.56E-05	-1.05E-06	1.45E-05	1.20E-05	7.95E-07	1.28E-05	1.90E-05	-1.03E-06	1.80E-05	2.06E-05	-2.47E-06	1.81E-05	1
0.48	2.47E-05	-1.28E-05	1.19E-05	1.84E-04	7.72E-05	2.62E-04	2.67E-16	-2.88E-16	-2.14E-17	3.00E-04	1.49E-04	4.49E-04	2.45E-04	1.36E-04	3.81E-04	1.43E-04	1.04E-04	2.46E-04	4.36E-05	1.09E-05	5.46E-05	-2.59E-05	6.77E-06	-1.91E-05	-4.11E-05	-8.34E-06	-4.94E-05	6.86E-06	5.16E-06	1.20E-05	-7.37E-05	-2.13E-05	-9.50E-05	5.63E-05	1.52E-05	7.15E-05	8.65E-05	3.35E-05	1.20E-04	2.99E-15	-3.84E-16	2.61E-15	5.51E-05	1.43E-05	6.94E-05	1.14E-04	3.96E-05	1.53E-04	9.45E-06	7.83E-06	1.73E-05	1.23E-06	-2.12E-06	-8.90E-07	-1.15E-05	3.09E-06	-8.41E-06	7.29E-06	3.17E-07	7.61E-06	8.28E-06	5.19E-06	1.35E-05	6.64E-06	1.68E-05	2.35E-05	-5.70E-06	-1.01E-05	-1.58E-05	5.08E-05	2.79E-05	7.86E-05	-3.74E-16	1.14E-16	-2.61E-16	1.35E-05	2.71E-06	1.62E-05	6.22E-05	2.84E-05	9.06E-05	5.68E-05	2.24E-05	7.92E-05	5.25E-06	9.63E-06	1.49E-05	-6.27E-07	1.66E-06	1.03E-06	1.24E-05	-5.09E-07	1.19E-05	8.60E-06	2.18E-07	8.82E-06	7.83E-07	4.86E-06	5.64E-06	-3.21E-05	-2.41E-05	-5.62E-05	2.51E-05	1.02E-05	3.54E-05	6.05E-16	7.66E-16	1.37E-15	1.30E-05	7.17E-06	2.02E-05	3.34E-05	1.22E-05	4.56E-05	2.94E-05	1.04E-05	3.98E-05	2.08E-05	-2.15E-06	1.87E-05	1.58E-05	-9.53E-07	1.49E-05	1.23E-05	9.49E-07	1.33E-05	1.96E-05	-8.74E-07	1.87E-05	2.14E-05	-2.35E-06	1.91E-05	1
0.52	2.73E-05	-1.16E-05	1.56E-05	1.83E-04	7.81E-05	2.61E-04	2.59E-16	-2.75E-16	-1.61E-17	2.98E-04	1.48E-04	4.46E-04	2.45E-04	1.38E-04	3.82E-04	1.43E-04	1.04E-04	2.47E-04	4.49E-05	1.27E-05	5.75E-05	-2.68E-05	6.58E-06	-2.02E-05	-4.09E-05	-7.90E-06	-4.88E-05	6.97E-06	4.80E-06	1.18E-05	-7.15E-05	-2.12E-05	-9.27E-05	5.12E-05	1.25E-05	6.36E-05	8.20E-05	3.31E-05	1.15E-04	3.07E-15	-4.04E-16	2.67E-15	5.34E-05	1.44E-05	6.77E-05	1.12E-04	3.98E-05	1.52E-04	1.29E-05	9.48E-06	2.24E-05	1.45E-06	-1.20E-06	2.48E-07	-1.20E-05	3.26E-06	-8.72E-06	7.12E-06	6.54E-07	7.78E-06	8.33E-06	5.60E-06	1.39E-05	5.87E-06	1.67E-05	2.25E-05	-5.52E-06	-9.70E-06	-1.52E-05	5.09E-05	2.84E-05	7.93E-05	-3.38E-16	8.15E-17	-2.56E-16	1.44E-05	3.61E-06	1.80E-05	6.21E-05	2.85E-05	9.06E-05	5.75E-05	2.26E-05	8.01E-05	5.55E-06	9.92E-06	1.55E-05	-4.07E-07	1.91E-06	1.51E-06	1.25E-05	-5.12E-07	1.20E-05	8.22E-06	1.09E-06	9.31E-06	1.19E-06	4.92E-06	6.11E-06	-3.24E-05	-2.33E-05	-5.57E-05	2.59E-05	1.09E-05	3.69E-05	6.94E-16	7.86E-16	1.48E-15	1.28E-05	7.92E-06	2.07E-05	3.41E-05	1.30E-05	4.70E-05	3.03E-05	1.07E-05	4.10E-05	2.10E-05	-1.93E-06	1.90E-05	1.61E-05	-8.57E-07	1.52E-05	1.27E-05	1.10E-06	1.38E-05	2.02E-05	-7.11E-07	1.95E-05	2.22E-05	-2.16E-06	2.00E-05	1
0.56	2.99E-05	-1.04E-05	1.95E-05	1.82E-04	7.89E-05	2.60E-04	2.50E-16	-2.61E-16	-1.09E-17	2.95E-04	1.48E-04	4.43E-04	2.44E-04	1.39E-04	3.84E-04	1.43E-04	1.05E-04	2.48E-04	4.61E-05	1.44E-05	6.05E-05	-2.77E-05	6.38E-06	-2.13E-05	-4.08E-05	-7.46E-06	-4.82E-05	7.04E-06	4.42E-06	1.15E-05	-6.92E-05	-2.11E-05	-9.03E-05	4.59E-05	9.74E-06	5.56E-05	7.74E-05	3.27E-05	1.10E-04	3.13E-15	-4.16E-16	2.71E-15	5.16E-05	1.44E-05	6.61E-05	1.10E-04	4.00E-05	1.50E-04	1.65E-05	1.11E-05	2.76E-05	1.66E-06	-2.82E-07	1.37E-06	-1.25E-05	3.42E-06	-9.03E-06	6.92E-06	1.01E-06	7.93E-06	8.34E-06	6.00E-06	1.43E-05	5.08E-06	1.65E-05	2.16E-05	-5.30E-06	-9.26E-06	-1.46E-05	5.10E-05	2.89E-05	7.99E-05	-2.99E-16	4.90E-17	-2.50E-16	1.54E-05	4.54E-06	2.00E-05	6.21E-05	2.86E-05	9.07E-05	5.82E-05	2.28E-05	8.10E-05	5.87E-06	1.02E-05	1.61E-05	-1.75E-07	2.16E-06	1.98E-06	1.26E-05	-5.09E-07	1.21E-05	7.87E-06	1.96E-06	9.83E-06	1.62E-06	4.96E-06	6.58E-06	-3.26E-05	-2.24E-05	-5.50E-05	2.67E-05	1.17E-05	3.84E-05	7.73E-16	7.97E-16	1.57E-15	1.27E-05	8.68E-06	2.13E-05	3.47E-05	1.37E-05	4.84E-05	3.12E-05	1.09E-05	4.21E-05	2.11E-05	-1.70E-06	1.94E-05	1.63E-05	-7.63E-07	1.55E-05	1.30E-05	1.25E-06	1.42E-05	2.07E-05	-5.42E-07	2.02E-05	2.29E-05	-1.92E-06	2.10E-05	1
0.6	3.26E-05	-9.24E-06	2.33E-05	1.80E-04	7.97E-05	2.60E-04	2.39E-16	-2.45E-16	-5.79E-18	2.93E-04	1.48E-04	4.40E-04	2.44E-04	1.41E-04	3.84E-04	1.43E-04	1.05E-04	2.48E-04	4.73E-05	1.61E-05	6.34E-05	-2.85E-05	6.17E-06	-2.24E-05	-4.06E-05	-7.02E-06	-4.76E-05	7.10E-06	4.04E-06	1.11E-05	-6.69E-05	-2.10E-05	-8.79E-05	4.05E-05	6.97E-06	4.74E-05	7.28E-05	3.23E-05	1.05E-04	3.15E-15	-4.20E-16	2.73E-15	4.99E-05	1.45E-05	6.45E-05	1.08E-04	4.02E-05	1.48E-04	2.00E-05	1.28E-05	3.28E-05	1.86E-06	6.24E-07	2.48E-06	-1.29E-05	3.57E-06	-9.36E-06	6.69E-06	1.37E-06	8.06E-06	8.32E-06	6.39E-06	1.47E-05	4.28E-06	1.63E-05	2.06E-05	-5.05E-06	-8.79E-06	-1.38E-05	5.10E-05	2.94E-05	8.04E-05	-2.57E-16	1.66E-17	-2.40E-16	1.64E-05	5.49E-06	2.19E-05	6.20E-05	2.87E-05	9.07E-05	5.88E-05	2.30E-05	8.18E-05	6.20E-06	1.04E-05	1.66E-05	7.22E-08	2.39E-06	2.47E-06	1.26E-05	-4.96E-07	1.21E-05	7.56E-06	2.81E-06	1.04E-05	2.07E-06	4.96E-06	7.04E-06	-3.28E-05	-2.14E-05	-5.43E-05	2.76E-05	1.24E-05	4.00E-05	8.41E-16	8.00E-16	1.64E-15	1.25E-05	9.46E-06	2.20E-05	3.53E-05	1.44E-05	4.97E-05	3.20E-05	1.11E-05	4.31E-05	2.13E-05	-1.47E-06	1.98E-05	1.65E-05	-6.72E-07	1.58E-05	1.33E-05	1.39E-06	1.47E-05	2.13E-05	-3.67E-07	2.09E-05	2.35E-05	-1.62E-06	2.19E-05	1
0.64	3.52E-05	-8.07E-06	2.72E-05	1.78E-04	8.05E-05	2.59E-04	2.26E-16	-2.27E-16	-7.83E-19	2.90E-04	1.47E-04	4.38E-04	2.43E-04	1.42E-04	3.85E-04	1.43E-04	1.06E-04	2.49E-04	4.86E-05	1.78E-05	6.64E-05	-2.94E-05	5.95E-06	-2.34E-05	-4.04E-05	-6.59E-06	-4.70E-05	7.15E-06	3.67E-06	1.08E-05	-6.46E-05	-2.09E-05	-8.55E-05	3.50E-05	4.20E-06	3.92E-05	6.83E-05	3.19E-05	1.00E-04	3.15E-15	-4.16E-16	2.73E-15	4.82E-05	1.46E-05	6.29E-05	1.06E-04	4.04E-05	1.46E-04	2.35E-05	1.44E-05	3.79E-05	2.05E-06	1.51E-06	3.56E-06	-1.34E-05	3.72E-06	-9.70E-06	6.43E-06	1.75E-06	8.18E-06	8.28E-06	6.76E-06	1.50E-05	3.48E-06	1.61E-05	1.96E-05	-4.76E-06	-8.31E-06	-1.31E-05	5.11E-05	2.98E-05	8.09E-05	-2.13E-16	-1.55E-17	-2.28E-16	1.74E-05	6.45E-06	2.38E-05	6.19E-05	2.88E-05	9.07E-05	5.94E-05	2.31E-05	8.25E-05	6.55E-06	1.07E-05	1.72E-05	3.36E-07	2.62E-06	2.95E-06	1.27E-05	-4.73E-07	1.22E-05	7.29E-06	3.65E-06	1.09E-05	2.56E-06	4.94E-06	7.50E-06	-3.30E-05	-2.04E-05	-5.34E-05	2.84E-05	1.31E-05	4.15E-05	8.99E-16	7.93E-16	1.69E-15	1.24E-05	1.02E-05	2.26E-05	3.59E-05	1.51E-05	5.10E-05	3.29E-05	1.13E-05	4.42E-05	2.14E-05	-1.23E-06	2.02E-05	1.67E-05	-5.85E-07	1.61E-05	1.37E-05	1.53E-06	1.52E-05	2.18E-05	-1.88E-07	2.16E-05	2.41E-05	-1.26E-06	2.29E-05	1
0.68	3.80E-05	-6.93E-06	3.10E-05	1.77E-04	8.11E-05	2.58E-04	2.13E-16	-2.08E-16	4.06E-18	2.88E-04	1.47E-04	4.35E-04	2.42E-04	1.44E-04	3.86E-04	1.43E-04	1.06E-04	2.49E-04	4.98E-05	1.95E-05	6.93E-05	-3.02E-05	5.74E-06	-2.45E-05	-4.01E-05	-6.17E-06	-4.63E-05	7.21E-06	3.30E-06	1.05E-05	-6.23E-05	-2.08E-05	-8.31E-05	2.94E-05	1.44E-06	3.09E-05	6.38E-05	3.16E-05	9.54E-05	3.12E-15	-4.04E-16	2.71E-15	4.66E-05	1.48E-05	6.14E-05	1.04E-04	4.07E-05	1.44E-04	2.70E-05	1.60E-05	4.30E-05	2.23E-06	2.37E-06	4.60E-06	-1.39E-05	3.85E-06	-1.00E-05	6.16E-06	2.14E-06	8.30E-06	8.21E-06	7.13E-06	1.53E-05	2.69E-06	1.59E-05	1.86E-05	-4.43E-06	-7.80E-06	-1.22E-05	5.11E-05	3.03E-05	8.14E-05	-1.67E-16	-4.70E-17	-2.14E-16	1.84E-05	7.41E-06	2.58E-05	6.18E-05	2.88E-05	9.07E-05	5.99E-05	2.33E-05	8.32E-05	6.91E-06	1.09E-05	1.78E-05	6.19E-07	2.82E-06	3.44E-06	1.27E-05	-4.39E-07	1.23E-05	7.09E-06	4.45E-06	1.15E-05	3.07E-06	4.89E-06	7.97E-06	-3.30E-05	-1.94E-05	-5.24E-05	2.93E-05	1.38E-05	4.31E-05	9.45E-16	7.77E-16	1.72E-15	1.22E-05	1.10E-05	2.33E-05	3.64E-05	1.58E-05	5.23E-05	3.38E-05	1.15E-05	4.52E-05	2.15E-05	-9.85E-07	2.06E-05	1.69E-05	-5.02E-07	1.64E-05	1.41E-05	1.66E-06	1.57E-05	2.23E-05	-4.35E-09	2.23E-05	2.47E-05	-8.36E-07	2.38E-05	1
0.72	4.07E-05	-5.84E-06	3.48E-05	1.75E-04	8.18E-05	2.57E-04	1.97E-16	-1.89E-16	8.73E-18	2.86E-04	1.46E-04	4.32E-04	2.42E-04	1.45E-04	3.87E-04	1.43E-04	1.07E-04	2.50E-04	5.11E-05	2.11E-05	7.22E-05	-3.11E-05	5.54E-06	-2.55E-05	-3.99E-05	-5.76E-06	-4.57E-05	7.27E-06	2.94E-06	1.02E-05	-6.00E-05	-2.07E-05	-8.07E-05	2.39E-05	-1.29E-06	2.26E-05	5.94E-05	3.13E-05	9.07E-05	3.05E-15	-3.84E-16	2.67E-15	4.50E-05	1.50E-05	5.99E-05	1.02E-04	4.09E-05	1.43E-04	3.05E-05	1.75E-05	4.80E-05	2.40E-06	3.20E-06	5.60E-06	-1.44E-05	3.98E-06	-1.04E-05	5.87E-06	2.55E-06	8.41E-06	8.11E-06	7.47E-06	1.56E-05	1.92E-06	1.57E-05	1.76E-05	-4.06E-06	-7.29E-06	-1.14E-05	5.11E-05	3.07E-05	8.18E-05	-1.19E-16	-7.77E-17	-1.97E-16	1.93E-05	8.35E-06	2.76E-05	6.17E-05	2.89E-05	9.06E-05	6.04E-05	2.35E-05	8.38E-05	7.29E-06	1.10E-05	1.83E-05	9.23E-07	3.01E-06	3.93E-06	1.28E-05	-3.92E-07	1.24E-05	6.95E-06	5.22E-06	1.22E-05	3.62E-06	4.82E-06	8.44E-06	-3.30E-05	-1.84E-05	-5.14E-05	3.02E-05	1.45E-05	4.47E-05	9.78E-16	7.52E-16	1.73E-15	1.21E-05	1.18E-05	2.39E-05	3.70E-05	1.65E-05	5.35E-05	3.46E-05	1.16E-05	4.63E-05	2.17E-05	-7.38E-07	2.09E-05	1.71E-05	-4.25E-07	1.67E-05	1.45E-05	1.78E-06	1.62E-05	2.28E-05	1.83E-07	2.30E-05	2.52E-05	-3.51E-07	2.48E-05	1
0.76	4.34E-05	-4.82E-06	3.86E-05	1.74E-04	8.24E-05	2.57E-04	1.81E-16	-1.68E-16	1.32E-17	2.84E-04	1.46E-04	4.30E-04	2.41E-04	1.46E-04	3.88E-04	1.43E-04	1.07E-04	2.50E-04	5.24E-05	2.27E-05	7.51E-05	-3.18E-05	5.34E-06	-2.65E-05	-3.96E-05	-5.36E-06	-4.50E-05	7.35E-06	2.60E-06	9.94E-06	-5.78E-05	-2.05E-05	-7.83E-05	1.84E-05	-3.98E-06	1.44E-05	5.53E-05	3.10E-05	8.63E-05	2.96E-15	-3.55E-16	2.61E-15	4.34E-05	1.52E-05	5.86E-05	9.99E-05	4.12E-05	1.41E-04	3.38E-05	1.90E-05	5.28E-05	2.55E-06	4.00E-06	6.55E-06	-1.49E-05	4.11E-06	-1.08E-05	5.56E-06	2.96E-06	8.53E-06	7.98E-06	7.80E-06	1.58E-05	1.18E-06	1.55E-05	1.66E-05	-3.65E-06	-6.78E-06	-1.04E-05	5.11E-05	3.10E-05	8.21E-05	-6.97E-17	-1.07E-16	-1.77E-16	2.01E-05	9.26E-06	2.94E-05	6.16E-05	2.90E-05	9.06E-05	6.07E-05	2.36E-05	8.43E-05	7.68E-06	1.12E-05	1.89E-05	1.25E-06	3.18E-06	4.43E-06	1.28E-05	-3.31E-07	1.25E-05	6.88E-06	5.94E-06	1.28E-05	4.21E-06	4.72E-06	8.93E-06	-3.30E-05	-1.73E-05	-5.03E-05	3.11E-05	1.52E-05	4.63E-05	9.99E-16	7.17E-16	1.72E-15	1.20E-05	1.26E-05	2.46E-05	3.76E-05	1.71E-05	5.47E-05	3.55E-05	1.18E-05	4.73E-05	2.18E-05	-4.89E-07	2.13E-05	1.74E-05	-3.53E-07	1.70E-05	1.49E-05	1.90E-06	1.68E-05	2.33E-05	3.73E-07	2.37E-05	2.56E-05	1.94E-07	2.58E-05	1
0.8	4.61E-05	-3.88E-06	4.23E-05	1.73E-04	8.30E-05	2.56E-04	1.64E-16	-1.46E-16	1.74E-17	2.82E-04	1.45E-04	4.27E-04	2.41E-04	1.48E-04	3.88E-04	1.43E-04	1.08E-04	2.51E-04	5.38E-05	2.42E-05	7.80E-05	-3.26E-05	5.15E-06	-2.74E-05	-3.94E-05	-4.99E-06	-4.44E-05	7.46E-06	2.28E-06	9.74E-06	-5.57E-05	-2.03E-05	-7.61E-05	1.29E-05	-6.60E-06	6.32E-06	5.13E-05	3.08E-05	8.21E-05	2.85E-15	-3.18E-16	2.53E-15	4.20E-05	1.54E-05	5.74E-05	9.82E-05	4.15E-05	1.40E-04	3.71E-05	2.04E-05	5.75E-05	2.70E-06	4.75E-06	7.44E-06	-1.53E-05	4.23E-06	-1.11E-05	5.26E-06	3.39E-06	8.64E-06	7.84E-06	8.12E-06	1.60E-05	4.80E-07	1.53E-05	1.58E-05	-3.20E-06	-6.27E-06	-9.47E-06	5.11E-05	3.14E-05	8.24E-05	-1.95E-17	-1.36E-16	-1.55E-16	2.10E-05	1.01E-05	3.11E-05	6.15E-05	2.90E-05	9.05E-05	6.11E-05	2.37E-05	8.48E-05	8.10E-06	1.13E-05	1.94E-05	1.60E-06	3.33E-06	4.94E-06	1.29E-05	-2.55E-07	1.27E-05	6.90E-06	6.62E-06	1.35E-05	4.85E-06	4.59E-06	9.44E-06	-3.29E-05	-1.62E-05	-4.91E-05	3.20E-05	1.59E-05	4.79E-05	1.01E-15	6.73E-16	1.68E-15	1.19E-05	1.34E-05	2.53E-05	3.81E-05	1.77E-05	5.59E-05	3.64E-05	1.19E-05	4.83E-05	2.20E-05	-2.40E-07	2.18E-05	1.76E-05	-2.88E-07	1.73E-05	1.53E-05	2.00E-06	1.73E-05	2.38E-05	5.65E-07	2.43E-05	2.59E-05	7.97E-07	2.67E-05	1
0.84	4.89E-05	-3.05E-06	4.58E-05	1.72E-04	8.36E-05	2.55E-04	1.46E-16	-1.25E-16	2.14E-17	2.81E-04	1.45E-04	4.26E-04	2.40E-04	1.49E-04	3.90E-04	1.44E-04	1.09E-04	2.52E-04	5.52E-05	2.57E-05	8.09E-05	-3.33E-05	4.97E-06	-2.83E-05	-3.91E-05	-4.64E-06	-4.37E-05	7.61E-06	1.98E-06	9.60E-06	-5.37E-05	-2.02E-05	-7.39E-05	7.58E-06	-9.15E-06	-1.58E-06	4.76E-05	3.05E-05	7.82E-05	2.70E-15	-2.73E-16	2.43E-15	4.06E-05	1.57E-05	5.63E-05	9.66E-05	4.19E-05	1.38E-04	4.03E-05	2.18E-05	6.20E-05	2.83E-06	5.44E-06	8.28E-06	-1.58E-05	4.34E-06	-1.15E-05	4.95E-06	3.82E-06	8.77E-06	7.67E-06	8.42E-06	1.61E-05	-1.68E-07	1.51E-05	1.49E-05	-2.70E-06	-5.77E-06	-8.48E-06	5.10E-05	3.17E-05	8.27E-05	3.13E-17	-1.62E-16	-1.31E-16	2.17E-05	1.09E-05	3.26E-05	6.14E-05	2.91E-05	9.04E-05	6.14E-05	2.39E-05	8.52E-05	8.53E-06	1.14E-05	2.00E-05	1.98E-06	3.46E-06	5.44E-06	1.30E-05	-1.65E-07	1.29E-05	7.01E-06	7.24E-06	1.43E-05	5.52E-06	4.44E-06	9.96E-06	-3.27E-05	-1.52E-05	-4.79E-05	3.30E-05	1.65E-05	4.95E-05	1.00E-15	6.20E-16	1.62E-15	1.18E-05	1.42E-05	2.60E-05	3.87E-05	1.83E-05	5.70E-05	3.74E-05	1.20E-05	4.93E-05	2.22E-05	8.70E-09	2.22E-05	1.79E-05	-2.30E-07	1.76E-05	1.58E-05	2.10E-06	1.79E-05	2.42E-05	7.59E-07	2.50E-05	2.62E-05	1.46E-06	2.77E-05	1
0.88	5.16E-05	-2.32E-06	4.93E-05	1.71E-04	8.41E-05	2.55E-04	1.28E-16	-1.02E-16	2.52E-17	2.79E-04	1.45E-04	4.24E-04	2.40E-04	1.50E-04	3.91E-04	1.44E-04	1.09E-04	2.53E-04	5.67E-05	2.71E-05	8.38E-05	-3.39E-05	4.81E-06	-2.91E-05	-3.88E-05	-4.32E-06	-4.31E-05	7.82E-06	1.72E-06	9.54E-06	-5.18E-05	-2.00E-05	-7.18E-05	2.35E-06	-1.16E-05	-9.26E-06	4.42E-05	3.04E-05	7.46E-05	2.53E-15	-2.20E-16	2.31E-15	3.93E-05	1.60E-05	5.53E-05	9.53E-05	4.22E-05	1.37E-04	4.33E-05	2.30E-05	6.64E-05	2.96E-06	6.09E-06	9.05E-06	-1.63E-05	4.45E-06	-1.18E-05	4.65E-06	4.25E-06	8.90E-06	7.49E-06	8.71E-06	1.62E-05	-7.53E-07	1.49E-05	1.42E-05	-2.17E-06	-5.29E-06	-7.46E-06	5.10E-05	3.19E-05	8.29E-05	8.23E-17	-1.87E-16	-1.05E-16	2.23E-05	1.17E-05	3.40E-05	6.12E-05	2.91E-05	9.04E-05	6.16E-05	2.40E-05	8.56E-05	8.99E-06	1.15E-05	2.05E-05	2.38E-06	3.57E-06	5.96E-06	1.32E-05	-5.86E-08	1.31E-05	7.22E-06	7.80E-06	1.50E-05	6.24E-06	4.26E-06	1.05E-05	-3.25E-05	-1.42E-05	-4.67E-05	3.40E-05	1.71E-05	5.10E-05	9.82E-16	5.59E-16	1.54E-15	1.17E-05	1.50E-05	2.67E-05	3.93E-05	1.88E-05	5.81E-05	3.83E-05	1.20E-05	5.03E-05	2.24E-05	2.56E-07	2.27E-05	1.81E-05	-1.80E-07	1.79E-05	1.63E-05	2.18E-06	1.85E-05	2.46E-05	9.54E-07	2.56E-05	2.65E-05	2.17E-06	2.87E-05	1
0.92	5.43E-05	-1.72E-06	5.26E-05	1.71E-04	8.46E-05	2.55E-04	1.09E-16	-8.02E-17	2.87E-17	2.79E-04	1.45E-04	4.23E-04	2.41E-04	1.52E-04	3.92E-04	1.45E-04	1.10E-04	2.55E-04	5.83E-05	2.84E-05	8.67E-05	-3.45E-05	4.68E-06	-2.98E-05	-3.85E-05	-4.02E-06	-4.26E-05	8.08E-06	1.49E-06	9.58E-06	-5.00E-05	-1.98E-05	-6.98E-05	-2.72E-06	-1.40E-05	-1.67E-05	4.11E-05	3.03E-05	7.14E-05	2.34E-15	-1.61E-16	2.18E-15	3.82E-05	1.63E-05	5.45E-05	9.41E-05	4.26E-05	1.37E-04	4.62E-05	2.42E-05	7.04E-05	3.07E-06	6.68E-06	9.76E-06	-1.67E-05	4.56E-06	-1.22E-05	4.36E-06	4.69E-06	9.05E-06	7.30E-06	8.98E-06	1.63E-05	-1.27E-06	1.48E-05	1.35E-05	-1.59E-06	-4.83E-06	-6.42E-06	5.09E-05	3.22E-05	8.30E-05	1.33E-16	-2.10E-16	-7.69E-17	2.29E-05	1.24E-05	3.53E-05	6.11E-05	2.92E-05	9.02E-05	6.18E-05	2.41E-05	8.59E-05	9.46E-06	1.16E-05	2.11E-05	2.82E-06	3.66E-06	6.48E-06	1.33E-05	6.29E-08	1.34E-05	7.53E-06	8.29E-06	1.58E-05	7.01E-06	4.06E-06	1.11E-05	-3.23E-05	-1.32E-05	-4.55E-05	3.50E-05	1.76E-05	5.26E-05	9.51E-16	4.91E-16	1.44E-15	1.17E-05	1.57E-05	2.74E-05	3.98E-05	1.93E-05	5.91E-05	3.93E-05	1.21E-05	5.13E-05	2.26E-05	5.00E-07	2.31E-05	1.84E-05	-1.38E-07	1.83E-05	1.68E-05	2.26E-06	1.91E-05	2.51E-05	1.15E-06	2.62E-05	2.67E-05	2.94E-06	2.96E-05	1
0.96	5.70E-05	-1.24E-06	5.58E-05	1.70E-04	8.51E-05	2.55E-04	9.02E-17	-5.82E-17	3.19E-17	2.78E-04	1.45E-04	4.23E-04	2.41E-04	1.53E-04	3.94E-04	1.46E-04	1.11E-04	2.57E-04	6.00E-05	2.96E-05	8.96E-05	-3.49E-05	4.56E-06	-3.04E-05	-3.82E-05	-3.76E-06	-4.20E-05	8.42E-06	1.31E-06	9.73E-06	-4.83E-05	-1.97E-05	-6.80E-05	-7.61E-06	-1.62E-05	-2.38E-05	3.83E-05	3.02E-05	6.85E-05	2.12E-15	-9.51E-17	2.03E-15	3.71E-05	1.67E-05	5.38E-05	9.31E-05	4.30E-05	1.36E-04	4.90E-05	2.53E-05	7.43E-05	3.18E-06	7.21E-06	1.04E-05	-1.72E-05	4.66E-06	-1.25E-05	4.08E-06	5.13E-06	9.21E-06	7.10E-06	9.23E-06	1.63E-05	-1.70E-06	1.47E-05	1.30E-05	-9.69E-07	-4.40E-06	-5.37E-06	5.08E-05	3.23E-05	8.31E-05	1.83E-16	-2.31E-16	-4.75E-17	2.33E-05	1.30E-05	3.63E-05	6.09E-05	2.92E-05	9.01E-05	6.19E-05	2.42E-05	8.61E-05	9.95E-06	1.17E-05	2.16E-05	3.28E-06	3.72E-06	7.00E-06	1.36E-05	2.00E-07	1.38E-05	7.95E-06	8.72E-06	1.67E-05	7.83E-06	3.84E-06	1.17E-05	-3.21E-05	-1.23E-05	-4.43E-05	3.60E-05	1.81E-05	5.41E-05	9.07E-16	4.15E-16	1.32E-15	1.17E-05	1.64E-05	2.81E-05	4.04E-05	1.97E-05	6.01E-05	4.02E-05	1.21E-05	5.24E-05	2.29E-05	7.39E-07	2.36E-05	1.87E-05	-1.04E-07	1.86E-05	1.74E-05	2.33E-06	1.97E-05	2.55E-05	1.34E-06	2.68E-05	2.68E-05	3.74E-06	3.06E-05	1
1	5.97E-05	-9.10E-07	5.88E-05	1.70E-04	8.55E-05	2.56E-04	7.17E-17	-3.68E-17	3.49E-17	2.78E-04	1.45E-04	4.23E-04	2.42E-04	1.54E-04	3.96E-04	1.47E-04	1.12E-04	2.59E-04	6.17E-05	3.08E-05	9.25E-05	-3.53E-05	4.46E-06	-3.09E-05	-3.79E-05	-3.53E-06	-4.14E-05	8.84E-06	1.16E-06	1.00E-05	-4.68E-05	-1.95E-05	-6.63E-05	-1.23E-05	-1.84E-05	-3.07E-05	3.59E-05	3.02E-05	6.61E-05	1.89E-15	-2.39E-17	1.86E-15	3.62E-05	1.71E-05	5.32E-05	9.24E-05	4.35E-05	1.36E-04	5.16E-05	2.63E-05	7.79E-05	3.29E-06	7.68E-06	1.10E-05	-1.76E-05	4.76E-06	-1.28E-05	3.83E-06	5.57E-06	9.40E-06	6.90E-06	9.47E-06	1.64E-05	-2.05E-06	1.46E-05	1.26E-05	-3.13E-07	-4.00E-06	-4.32E-06	5.07E-05	3.25E-05	8.32E-05	2.32E-16	-2.49E-16	-1.69E-17	2.36E-05	1.36E-05	3.72E-05	6.07E-05	2.93E-05	9.00E-05	6.20E-05	2.43E-05	8.63E-05	1.05E-05	1.17E-05	2.21E-05	3.78E-06	3.76E-06	7.54E-06	1.38E-05	3.51E-07	1.42E-05	8.48E-06	9.08E-06	1.76E-05	8.69E-06	3.60E-06	1.23E-05	-3.18E-05	-1.14E-05	-4.32E-05	3.70E-05	1.86E-05	5.56E-05	8.52E-16	3.33E-16	1.18E-15	1.17E-05	1.71E-05	2.88E-05	4.10E-05	2.01E-05	6.11E-05	4.12E-05	1.21E-05	5.34E-05	2.32E-05	9.74E-07	2.42E-05	1.90E-05	-7.76E-08	1.89E-05	1.80E-05	2.38E-06	2.03E-05	2.59E-05	1.54E-06	2.74E-05	2.69E-05	4.59E-06	3.15E-05	1
1.04	6.23E-05	-7.17E-07	6.16E-05	1.71E-04	8.60E-05	2.57E-04	5.37E-17	-1.61E-17	3.76E-17	2.79E-04	1.45E-04	4.24E-04	2.43E-04	1.56E-04	3.99E-04	1.49E-04	1.13E-04	2.61E-04	6.36E-05	3.19E-05	9.55E-05	-3.57E-05	4.39E-06	-3.13E-05	-3.76E-05	-3.32E-06	-4.09E-05	9.34E-06	1.06E-06	1.04E-05	-4.54E-05	-1.93E-05	-6.47E-05	-1.68E-05	-2.03E-05	-3.71E-05	3.39E-05	3.03E-05	6.42E-05	1.64E-15	5.21E-17	1.69E-15	3.54E-05	1.75E-05	5.29E-05	9.20E-05	4.40E-05	1.36E-04	5.41E-05	2.72E-05	8.12E-05	3.39E-06	8.08E-06	1.15E-05	-1.80E-05	4.86E-06	-1.32E-05	3.60E-06	6.01E-06	9.61E-06	6.70E-06	9.70E-06	1.64E-05	-2.29E-06	1.45E-05	1.22E-05	3.79E-07	-3.64E-06	-3.26E-06	5.05E-05	3.26E-05	8.31E-05	2.79E-16	-2.65E-16	1.46E-17	2.38E-05	1.40E-05	3.78E-05	6.05E-05	2.93E-05	8.98E-05	6.20E-05	2.44E-05	8.64E-05	1.10E-05	1.17E-05	2.27E-05	4.30E-06	3.78E-06	8.09E-06	1.41E-05	5.16E-07	1.46E-05	9.13E-06	9.36E-06	1.85E-05	9.61E-06	3.34E-06	1.30E-05	-3.15E-05	-1.06E-05	-4.20E-05	3.80E-05	1.90E-05	5.70E-05	7.85E-16	2.46E-16	1.03E-15	1.17E-05	1.78E-05	2.95E-05	4.16E-05	2.04E-05	6.21E-05	4.23E-05	1.21E-05	5.44E-05	2.36E-05	1.20E-06	2.48E-05	1.94E-05	-6.00E-08	1.93E-05	1.86E-05	2.42E-06	2.10E-05	2.63E-05	1.73E-06	2.80E-05	2.70E-05	5.48E-06	3.25E-05	1
1.08	6.50E-05	-6.71E-07	6.43E-05	1.71E-04	8.64E-05	2.58E-04	3.65E-17	3.51E-18	4.00E-17	2.80E-04	1.45E-04	4.25E-04	2.45E-04	1.57E-04	4.02E-04	1.50E-04	1.14E-04	2.64E-04	6.55E-05	3.29E-05	9.84E-05	-3.59E-05	4.35E-06	-3.15E-05	-3.73E-05	-3.16E-06	-4.04E-05	9.95E-06	1.00E-06	1.10E-05	-4.41E-05	-1.91E-05	-6.32E-05	-2.10E-05	-2.22E-05	-4.32E-05	3.23E-05	3.04E-05	6.27E-05	1.37E-15	1.32E-16	1.51E-15	3.47E-05	1.80E-05	5.27E-05	9.18E-05	4.46E-05	1.36E-04	5.64E-05	2.79E-05	8.43E-05	3.49E-06	8.42E-06	1.19E-05	-1.84E-05	4.96E-06	-1.34E-05	3.40E-06	6.44E-06	9.84E-06	6.50E-06	9.91E-06	1.64E-05	-2.44E-06	1.45E-05	1.21E-05	1.10E-06	-3.31E-06	-2.21E-06	5.04E-05	3.27E-05	8.30E-05	3.25E-16	-2.78E-16	4.67E-17	2.39E-05	1.44E-05	3.83E-05	6.03E-05	2.93E-05	8.96E-05	6.20E-05	2.45E-05	8.64E-05	1.15E-05	1.17E-05	2.32E-05	4.86E-06	3.78E-06	8.64E-06	1.45E-05	6.95E-07	1.52E-05	9.91E-06	9.56E-06	1.95E-05	1.06E-05	3.07E-06	1.36E-05	-3.11E-05	-9.84E-06	-4.10E-05	3.91E-05	1.93E-05	5.84E-05	7.09E-16	1.54E-16	8.63E-16	1.18E-05	1.84E-05	3.02E-05	4.22E-05	2.07E-05	6.29E-05	4.33E-05	1.21E-05	5.55E-05	2.39E-05	1.43E-06	2.54E-05	1.97E-05	-5.06E-08	1.97E-05	1.92E-05	2.46E-06	2.17E-05	2.67E-05	1.92E-06	2.86E-05	2.70E-05	6.39E-06	3.34E-05	1
1.12	6.76E-05	-7.72E-07	6.68E-05	1.72E-04	8.69E-05	2.59E-04	2.03E-17	2.19E-17	4.22E-17	2.82E-04	1.46E-04	4.27E-04	2.47E-04	1.59E-04	4.05E-04	1.52E-04	1.15E-04	2.67E-04	6.76E-05	3.38E-05	1.01E-04	-3.60E-05	4.33E-06	-3.16E-05	-3.69E-05	-3.02E-06	-3.99E-05	1.07E-05	9.99E-07	1.17E-05	-4.29E-05	-1.90E-05	-6.19E-05	-2.50E-05	-2.39E-05	-4.89E-05	3.11E-05	3.06E-05	6.17E-05	1.10E-15	2.14E-16	1.32E-15	3.42E-05	1.85E-05	5.27E-05	9.19E-05	4.52E-05	1.37E-04	5.85E-05	2.86E-05	8.72E-05	3.60E-06	8.69E-06	1.23E-05	-1.88E-05	5.06E-06	-1.37E-05	3.24E-06	6.87E-06	1.01E-05	6.31E-06	1.01E-05	1.64E-05	-2.47E-06	1.45E-05	1.20E-05	1.86E-06	-3.03E-06	-1.17E-06	5.02E-05	3.27E-05	8.29E-05	3.67E-16	-2.88E-16	7.91E-17	2.39E-05	1.47E-05	3.85E-05	6.01E-05	2.93E-05	8.94E-05	6.19E-05	2.46E-05	8.65E-05	1.21E-05	1.17E-05	2.38E-05	5.45E-06	3.75E-06	9.21E-06	1.49E-05	8.85E-07	1.58E-05	1.08E-05	9.69E-06	2.05E-05	1.16E-05	2.78E-06	1.44E-05	-3.08E-05	-9.18E-06	-4.00E-05	4.02E-05	1.96E-05	5.98E-05	6.24E-16	5.96E-17	6.84E-16	1.18E-05	1.90E-05	3.08E-05	4.29E-05	2.09E-05	6.38E-05	4.44E-05	1.21E-05	5.65E-05	2.44E-05	1.64E-06	2.60E-05	2.01E-05	-4.93E-08	2.01E-05	1.99E-05	2.48E-06	2.24E-05	2.71E-05	2.10E-06	2.92E-05	2.70E-05	7.32E-06	3.43E-05	1
1.16	7.02E-05	-1.02E-06	6.92E-05	1.74E-04	8.73E-05	2.61E-04	5.46E-18	3.87E-17	4.41E-17	2.84E-04	1.46E-04	4.30E-04	2.49E-04	1.60E-04	4.09E-04	1.54E-04	1.16E-04	2.71E-04	6.97E-05	3.46E-05	1.04E-04	-3.60E-05	4.34E-06	-3.16E-05	-3.65E-05	-2.92E-06	-3.94E-05	1.15E-05	1.05E-06	1.25E-05	-4.19E-05	-1.88E-05	-6.07E-05	-2.88E-05	-2.55E-05	-5.43E-05	3.03E-05	3.08E-05	6.11E-05	8.25E-16	2.98E-16	1.12E-15	3.38E-05	1.90E-05	5.29E-05	9.22E-05	4.58E-05	1.38E-04	6.05E-05	2.92E-05	8.97E-05	3.71E-06	8.90E-06	1.26E-05	-1.91E-05	5.16E-06	-1.40E-05	3.12E-06	7.29E-06	1.04E-05	6.15E-06	1.03E-05	1.64E-05	-2.38E-06	1.45E-05	1.21E-05	2.64E-06	-2.79E-06	-1.50E-07	5.00E-05	3.27E-05	8.27E-05	4.07E-16	-2.96E-16	1.11E-16	2.37E-05	1.49E-05	3.86E-05	5.98E-05	2.93E-05	8.91E-05	6.18E-05	2.46E-05	8.64E-05	1.27E-05	1.17E-05	2.43E-05	6.08E-06	3.71E-06	9.78E-06	1.53E-05	1.08E-06	1.64E-05	1.18E-05	9.75E-06	2.16E-05	1.26E-05	2.48E-06	1.51E-05	-3.05E-05	-8.59E-06	-3.91E-05	4.12E-05	1.99E-05	6.11E-05	5.31E-16	-3.70E-17	4.94E-16	1.19E-05	1.96E-05	3.15E-05	4.35E-05	2.11E-05	6.46E-05	4.55E-05	1.20E-05	5.76E-05	2.48E-05	1.84E-06	2.67E-05	2.06E-05	-5.57E-08	2.05E-05	2.06E-05	2.49E-06	2.31E-05	2.74E-05	2.29E-06	2.97E-05	2.70E-05	8.27E-06	3.53E-05	1
1.2	7.27E-05	-1.41E-06	7.13E-05	1.75E-04	8.77E-05	2.63E-04	-7.87E-18	5.37E-17	4.58E-17	2.86E-04	1.47E-04	4.33E-04	2.52E-04	1.62E-04	4.13E-04	1.57E-04	1.17E-04	2.74E-04	7.20E-05	3.54E-05	1.07E-04	-3.59E-05	4.37E-06	-3.15E-05	-3.61E-05	-2.85E-06	-3.90E-05	1.24E-05	1.14E-06	1.36E-05	-4.09E-05	-1.86E-05	-5.96E-05	-3.23E-05	-2.69E-05	-5.92E-05	2.99E-05	3.11E-05	6.10E-05	5.46E-16	3.83E-16	9.29E-16	3.36E-05	1.96E-05	5.32E-05	9.29E-05	4.65E-05	1.39E-04	6.23E-05	2.97E-05	9.20E-05	3.83E-06	9.04E-06	1.29E-05	-1.94E-05	5.26E-06	-1.42E-05	3.05E-06	7.70E-06	1.07E-05	6.00E-06	1.05E-05	1.65E-05	-2.18E-06	1.45E-05	1.24E-05	3.44E-06	-2.59E-06	8.50E-07	4.98E-05	3.26E-05	8.24E-05	4.44E-16	-3.00E-16	1.43E-16	2.35E-05	1.50E-05	3.84E-05	5.95E-05	2.93E-05	8.89E-05	6.16E-05	2.47E-05	8.64E-05	1.32E-05	1.16E-05	2.49E-05	6.73E-06	3.64E-06	1.04E-05	1.58E-05	1.29E-06	1.71E-05	1.30E-05	9.72E-06	2.27E-05	1.37E-05	2.17E-06	1.59E-05	-3.01E-05	-8.08E-06	-3.82E-05	4.23E-05	2.01E-05	6.24E-05	4.32E-16	-1.34E-16	2.97E-16	1.21E-05	2.01E-05	3.21E-05	4.42E-05	2.12E-05	6.54E-05	4.67E-05	1.20E-05	5.87E-05	2.53E-05	2.04E-06	2.74E-05	2.10E-05	-6.96E-08	2.09E-05	2.13E-05	2.49E-06	2.38E-05	2.78E-05	2.46E-06	3.03E-05	2.70E-05	9.22E-06	3.62E-05	1
1.24	7.53E-05	-1.94E-06	7.33E-05	1.77E-04	8.81E-05	2.65E-04	-1.94E-17	6.66E-17	4.72E-17	2.89E-04	1.48E-04	4.37E-04	2.55E-04	1.63E-04	4.18E-04	1.60E-04	1.19E-04	2.79E-04	7.44E-05	3.60E-05	1.10E-04	-3.57E-05	4.44E-06	-3.12E-05	-3.57E-05	-2.81E-06	-3.85E-05	1.35E-05	1.29E-06	1.48E-05	-4.01E-05	-1.85E-05	-5.86E-05	-3.55E-05	-2.81E-05	-6.37E-05	2.99E-05	3.15E-05	6.14E-05	2.69E-16	4.66E-16	7.36E-16	3.35E-05	2.03E-05	5.38E-05	9.38E-05	4.72E-05	1.41E-04	6.40E-05	3.01E-05	9.41E-05	3.97E-06	9.13E-06	1.31E-05	-1.97E-05	5.35E-06	-1.44E-05	3.03E-06	8.09E-06	1.11E-05	5.89E-06	1.06E-05	1.65E-05	-1.84E-06	1.46E-05	1.28E-05	4.26E-06	-2.44E-06	1.82E-06	4.96E-05	3.25E-05	8.21E-05	4.76E-16	-3.02E-16	1.74E-16	2.31E-05	1.50E-05	3.81E-05	5.93E-05	2.93E-05	8.86E-05	6.14E-05	2.48E-05	8.63E-05	1.38E-05	1.16E-05	2.54E-05	7.42E-06	3.56E-06	1.10E-05	1.64E-05	1.51E-06	1.79E-05	1.42E-05	9.62E-06	2.39E-05	1.49E-05	1.85E-06	1.67E-05	-2.98E-05	-7.66E-06	-3.75E-05	4.34E-05	2.03E-05	6.37E-05	3.27E-16	-2.31E-16	9.60E-17	1.22E-05	2.06E-05	3.28E-05	4.49E-05	2.13E-05	6.62E-05	4.78E-05	1.19E-05	5.98E-05	2.59E-05	2.23E-06	2.81E-05	2.15E-05	-9.04E-08	2.14E-05	2.20E-05	2.48E-06	2.45E-05	2.82E-05	2.64E-06	3.08E-05	2.69E-05	1.02E-05	3.71E-05	1
1.28	7.78E-05	-2.60E-06	7.52E-05	1.79E-04	8.85E-05	2.68E-04	-2.89E-17	7.73E-17	4.84E-17	2.92E-04	1.49E-04	4.41E-04	2.58E-04	1.65E-04	4.23E-04	1.63E-04	1.20E-04	2.83E-04	7.69E-05	3.67E-05	1.14E-04	-3.53E-05	4.53E-06	-3.08E-05	-3.52E-05	-2.80E-06	-3.80E-05	1.47E-05	1.50E-06	1.62E-05	-3.94E-05	-1.83E-05	-5.77E-05	-3.85E-05	-2.92E-05	-6.78E-05	3.03E-05	3.19E-05	6.22E-05	-1.20E-18	5.48E-16	5.47E-16	3.35E-05	2.10E-05	5.45E-05	9.50E-05	4.80E-05	1.43E-04	6.55E-05	3.04E-05	9.59E-05	4.12E-06	9.15E-06	1.33E-05	-2.00E-05	5.45E-06	-1.45E-05	3.07E-06	8.47E-06	1.15E-05	5.81E-06	1.08E-05	1.66E-05	-1.38E-06	1.47E-05	1.33E-05	5.09E-06	-2.33E-06	2.76E-06	4.93E-05	3.24E-05	8.17E-05	5.05E-16	-3.01E-16	2.04E-16	2.27E-05	1.49E-05	3.76E-05	5.89E-05	2.93E-05	8.83E-05	6.12E-05	2.49E-05	8.61E-05	1.44E-05	1.15E-05	2.59E-05	8.13E-06	3.46E-06	1.16E-05	1.70E-05	1.73E-06	1.87E-05	1.56E-05	9.44E-06	2.51E-05	1.61E-05	1.52E-06	1.76E-05	-2.95E-05	-7.33E-06	-3.68E-05	4.45E-05	2.04E-05	6.49E-05	2.20E-16	-3.26E-16	-1.07E-16	1.23E-05	2.11E-05	3.34E-05	4.56E-05	2.13E-05	6.69E-05	4.90E-05	1.18E-05	6.09E-05	2.65E-05	2.40E-06	2.89E-05	2.20E-05	-1.18E-07	2.19E-05	2.28E-05	2.47E-06	2.53E-05	2.86E-05	2.80E-06	3.14E-05	2.68E-05	1.11E-05	3.80E-05	1
1.32	8.03E-05	-3.38E-06	7.69E-05	1.82E-04	8.90E-05	2.71E-04	-3.61E-17	8.54E-17	4.93E-17	2.96E-04	1.50E-04	4.46E-04	2.62E-04	1.66E-04	4.28E-04	1.66E-04	1.22E-04	2.88E-04	7.95E-05	3.72E-05	1.17E-04	-3.49E-05	4.65E-06	-3.02E-05	-3.48E-05	-2.81E-06	-3.76E-05	1.60E-05	1.75E-06	1.78E-05	-3.87E-05	-1.81E-05	-5.68E-05	-4.13E-05	-3.02E-05	-7.15E-05	3.10E-05	3.25E-05	6.35E-05	-2.61E-16	6.27E-16	3.65E-16	3.37E-05	2.18E-05	5.54E-05	9.65E-05	4.89E-05	1.45E-04	6.69E-05	3.06E-05	9.76E-05	4.30E-06	9.12E-06	1.34E-05	-2.02E-05	5.55E-06	-1.46E-05	3.16E-06	8.84E-06	1.20E-05	5.77E-06	1.09E-05	1.67E-05	-7.86E-07	1.48E-05	1.40E-05	5.94E-06	-2.27E-06	3.67E-06	4.91E-05	3.22E-05	8.13E-05	5.29E-16	-2.97E-16	2.32E-16	2.21E-05	1.48E-05	3.69E-05	5.86E-05	2.93E-05	8.79E-05	6.10E-05	2.50E-05	8.59E-05	1.51E-05	1.14E-05	2.65E-05	8.88E-06	3.35E-06	1.22E-05	1.77E-05	1.95E-06	1.96E-05	1.72E-05	9.20E-06	2.64E-05	1.73E-05	1.19E-06	1.85E-05	-2.92E-05	-7.08E-06	-3.63E-05	4.56E-05	2.04E-05	6.61E-05	1.10E-16	-4.18E-16	-3.09E-16	1.25E-05	2.15E-05	3.40E-05	4.63E-05	2.13E-05	6.76E-05	5.02E-05	1.18E-05	6.20E-05	2.71E-05	2.56E-06	2.97E-05	2.25E-05	-1.51E-07	2.24E-05	2.36E-05	2.44E-06	2.61E-05	2.90E-05	2.96E-06	3.20E-05	2.68E-05	1.20E-05	3.88E-05	1
1.36	8.27E-05	-4.27E-06	7.85E-05	1.85E-04	8.94E-05	2.74E-04	-4.09E-17	9.09E-17	5.00E-17	3.00E-04	1.51E-04	4.51E-04	2.66E-04	1.68E-04	4.34E-04	1.69E-04	1.24E-04	2.93E-04	8.22E-05	3.77E-05	1.20E-04	-3.43E-05	4.80E-06	-2.95E-05	-3.42E-05	-2.86E-06	-3.71E-05	1.75E-05	2.06E-06	1.95E-05	-3.81E-05	-1.80E-05	-5.61E-05	-4.38E-05	-3.10E-05	-7.48E-05	3.22E-05	3.30E-05	6.52E-05	-5.07E-16	7.01E-16	1.94E-16	3.40E-05	2.26E-05	5.65E-05	9.82E-05	4.98E-05	1.48E-04	6.82E-05	3.08E-05	9.90E-05	4.51E-06	9.04E-06	1.36E-05	-2.03E-05	5.65E-06	-1.47E-05	3.32E-06	9.18E-06	1.25E-05	5.79E-06	1.11E-05	1.69E-05	-5.69E-08	1.49E-05	1.49E-05	6.78E-06	-2.25E-06	4.53E-06	4.88E-05	3.20E-05	8.08E-05	5.48E-16	-2.90E-16	2.58E-16	2.15E-05	1.45E-05	3.60E-05	5.83E-05	2.93E-05	8.76E-05	6.07E-05	2.51E-05	8.58E-05	1.57E-05	1.13E-05	2.70E-05	9.66E-06	3.23E-06	1.29E-05	1.84E-05	2.17E-06	2.06E-05	1.88E-05	8.88E-06	2.77E-05	1.86E-05	8.63E-07	1.94E-05	-2.89E-05	-6.91E-06	-3.58E-05	4.67E-05	2.05E-05	6.72E-05	-4.51E-19	-5.06E-16	-5.06E-16	1.26E-05	2.19E-05	3.45E-05	4.70E-05	2.13E-05	6.82E-05	5.14E-05	1.17E-05	6.31E-05	2.78E-05	2.71E-06	3.05E-05	2.31E-05	-1.89E-07	2.29E-05	2.44E-05	2.41E-06	2.68E-05	2.94E-05	3.12E-06	3.25E-05	2.67E-05	1.29E-05	3.97E-05	1
1.4	8.52E-05	-5.27E-06	7.99E-05	1.88E-04	8.99E-05	2.78E-04	-4.30E-17	9.35E-17	5.05E-17	3.05E-04	1.52E-04	4.56E-04	2.70E-04	1.70E-04	4.40E-04	1.73E-04	1.25E-04	2.99E-04	8.50E-05	3.81E-05	1.23E-04	-3.36E-05	4.97E-06	-2.86E-05	-3.36E-05	-2.92E-06	-3.66E-05	1.91E-05	2.42E-06	2.15E-05	-3.76E-05	-1.78E-05	-5.54E-05	-4.61E-05	-3.16E-05	-7.78E-05	3.37E-05	3.36E-05	6.73E-05	-7.34E-16	7.69E-16	3.49E-17	3.44E-05	2.35E-05	5.78E-05	1.00E-04	5.07E-05	1.51E-04	6.94E-05	3.09E-05	1.00E-04	4.74E-06	8.92E-06	1.37E-05	-2.05E-05	5.76E-06	-1.47E-05	3.54E-06	9.50E-06	1.30E-05	5.85E-06	1.12E-05	1.71E-05	8.07E-07	1.51E-05	1.59E-05	7.63E-06	-2.27E-06	5.35E-06	4.85E-05	3.17E-05	8.02E-05	5.61E-16	-2.80E-16	2.81E-16	2.08E-05	1.43E-05	3.50E-05	5.79E-05	2.93E-05	8.72E-05	6.04E-05	2.51E-05	8.55E-05	1.63E-05	1.12E-05	2.75E-05	1.05E-05	3.10E-06	1.36E-05	1.91E-05	2.39E-06	2.15E-05	2.06E-05	8.50E-06	2.91E-05	1.99E-05	5.33E-07	2.04E-05	-2.87E-05	-6.82E-06	-3.55E-05	4.78E-05	2.05E-05	6.83E-05	-1.09E-16	-5.88E-16	-6.97E-16	1.28E-05	2.22E-05	3.50E-05	4.77E-05	2.12E-05	6.89E-05	5.27E-05	1.16E-05	6.43E-05	2.85E-05	2.85E-06	3.14E-05	2.37E-05	-2.31E-07	2.34E-05	2.53E-05	2.37E-06	2.76E-05	2.98E-05	3.26E-06	3.31E-05	2.67E-05	1.38E-05	4.05E-05	1
1.44	8.76E-05	-6.36E-06	8.13E-05	1.91E-04	9.03E-05	2.82E-04	-4.24E-17	9.32E-17	5.08E-17	3.09E-04	1.53E-04	4.63E-04	2.75E-04	1.71E-04	4.46E-04	1.77E-04	1.27E-04	3.04E-04	8.79E-05	3.85E-05	1.26E-04	-3.28E-05	5.16E-06	-2.76E-05	-3.30E-05	-3.01E-06	-3.60E-05	2.08E-05	2.83E-06	2.37E-05	-3.70E-05	-1.77E-05	-5.47E-05	-4.82E-05	-3.21E-05	-8.04E-05	3.55E-05	3.43E-05	6.98E-05	-9.40E-16	8.31E-16	-1.09E-16	3.49E-05	2.44E-05	5.93E-05	1.02E-04	5.17E-05	1.54E-04	7.05E-05	3.09E-05	1.01E-04	5.02E-06	8.75E-06	1.38E-05	-2.06E-05	5.86E-06	-1.47E-05	3.83E-06	9.80E-06	1.36E-05	5.98E-06	1.13E-05	1.73E-05	1.81E-06	1.52E-05	1.70E-05	8.46E-06	-2.34E-06	6.13E-06	4.82E-05	3.15E-05	7.96E-05	5.70E-16	-2.68E-16	3.02E-16	2.00E-05	1.39E-05	3.39E-05	5.76E-05	2.92E-05	8.68E-05	6.01E-05	2.52E-05	8.53E-05	1.69E-05	1.11E-05	2.80E-05	1.13E-05	2.96E-06	1.43E-05	1.99E-05	2.60E-06	2.25E-05	2.24E-05	8.07E-06	3.05E-05	2.12E-05	2.04E-07	2.14E-05	-2.84E-05	-6.80E-06	-3.52E-05	4.89E-05	2.04E-05	6.93E-05	-2.15E-16	-6.62E-16	-8.78E-16	1.29E-05	2.26E-05	3.55E-05	4.84E-05	2.11E-05	6.95E-05	5.39E-05	1.15E-05	6.54E-05	2.93E-05	2.98E-06	3.23E-05	2.43E-05	-2.77E-07	2.40E-05	2.61E-05	2.32E-06	2.85E-05	3.03E-05	3.40E-06	3.37E-05	2.67E-05	1.46E-05	4.13E-05	1
1.48	9.01E-05	-7.52E-06	8.25E-05	1.95E-04	9.08E-05	2.86E-04	-3.89E-17	8.97E-17	5.08E-17	3.14E-04	1.55E-04	4.69E-04	2.80E-04	1.73E-04	4.53E-04	1.81E-04	1.29E-04	3.10E-04	9.10E-05	3.88E-05	1.30E-04	-3.18E-05	5.37E-06	-2.65E-05	-3.23E-05	-3.11E-06	-3.54E-05	2.27E-05	3.28E-06	2.60E-05	-3.65E-05	-1.75E-05	-5.40E-05	-5.01E-05	-3.25E-05	-8.26E-05	3.76E-05	3.51E-05	7.26E-05	-1.12E-15	8.85E-16	-2.35E-16	3.55E-05	2.54E-05	6.10E-05	1.05E-04	5.27E-05	1.58E-04	7.15E-05	3.08E-05	1.02E-04	5.33E-06	8.54E-06	1.39E-05	-2.06E-05	5.97E-06	-1.46E-05	4.19E-06	1.01E-05	1.43E-05	6.17E-06	1.15E-05	1.76E-05	2.94E-06	1.54E-05	1.83E-05	9.29E-06	-2.44E-06	6.85E-06	4.78E-05	3.12E-05	7.90E-05	5.73E-16	-2.53E-16	3.20E-16	1.92E-05	1.35E-05	3.27E-05	5.72E-05	2.92E-05	8.63E-05	5.98E-05	2.53E-05	8.51E-05	1.75E-05	1.10E-05	2.85E-05	1.21E-05	2.81E-06	1.50E-05	2.08E-05	2.81E-06	2.36E-05	2.44E-05	7.57E-06	3.20E-05	2.25E-05	-1.20E-07	2.24E-05	-2.83E-05	-6.86E-06	-3.51E-05	5.00E-05	2.03E-05	7.03E-05	-3.17E-16	-7.29E-16	-1.05E-15	1.31E-05	2.29E-05	3.60E-05	4.91E-05	2.09E-05	7.01E-05	5.52E-05	1.14E-05	6.66E-05	3.01E-05	3.09E-06	3.32E-05	2.49E-05	-3.26E-07	2.46E-05	2.70E-05	2.26E-06	2.93E-05	3.07E-05	3.53E-06	3.42E-05	2.67E-05	1.54E-05	4.21E-05	1
1.52	9.25E-05	-8.75E-06	8.37E-05	1.99E-04	9.13E-05	2.90E-04	-3.25E-17	8.30E-17	5.06E-17	3.19E-04	1.56E-04	4.75E-04	2.85E-04	1.75E-04	4.59E-04	1.85E-04	1.31E-04	3.16E-04	9.41E-05	3.91E-05	1.33E-04	-3.08E-05	5.61E-06	-2.52E-05	-3.16E-05	-3.23E-06	-3.48E-05	2.48E-05	3.78E-06	2.86E-05	-3.60E-05	-1.73E-05	-5.34E-05	-5.19E-05	-3.27E-05	-8.46E-05	3.99E-05	3.59E-05	7.58E-05	-1.27E-15	9.30E-16	-3.40E-16	3.63E-05	2.65E-05	6.28E-05	1.08E-04	5.38E-05	1.61E-04	7.24E-05	3.07E-05	1.03E-04	5.68E-06	8.30E-06	1.40E-05	-2.06E-05	6.08E-06	-1.45E-05	4.63E-06	1.03E-05	1.50E-05	6.44E-06	1.16E-05	1.80E-05	4.20E-06	1.56E-05	1.98E-05	1.01E-05	-2.57E-06	7.53E-06	4.74E-05	3.09E-05	7.83E-05	5.69E-16	-2.35E-16	3.34E-16	1.83E-05	1.31E-05	3.14E-05	5.68E-05	2.91E-05	8.59E-05	5.94E-05	2.54E-05	8.48E-05	1.81E-05	1.09E-05	2.91E-05	1.30E-05	2.67E-06	1.57E-05	2.17E-05	3.00E-06	2.47E-05	2.65E-05	7.02E-06	3.35E-05	2.39E-05	-4.38E-07	2.35E-05	-2.81E-05	-6.99E-06	-3.51E-05	5.11E-05	2.02E-05	7.13E-05	-4.13E-16	-7.87E-16	-1.20E-15	1.32E-05	2.32E-05	3.64E-05	4.99E-05	2.08E-05	7.07E-05	5.64E-05	1.13E-05	6.78E-05	3.10E-05	3.19E-06	3.41E-05	2.55E-05	-3.76E-07	2.52E-05	2.79E-05	2.21E-06	3.01E-05	3.12E-05	3.65E-06	3.48E-05	2.68E-05	1.61E-05	4.29E-05	1
1.56	9.49E-05	-1.00E-05	8.49E-05	2.03E-04	9.18E-05	2.95E-04	-2.30E-17	7.32E-17	5.01E-17	3.25E-04	1.57E-04	4.82E-04	2.90E-04	1.76E-04	4.66E-04	1.90E-04	1.33E-04	3.22E-04	9.73E-05	3.94E-05	1.37E-04	-2.96E-05	5.86E-06	-2.37E-05	-3.08E-05	-3.36E-06	-3.41E-05	2.70E-05	4.32E-06	3.13E-05	-3.55E-05	-1.72E-05	-5.27E-05	-5.34E-05	-3.28E-05	-8.62E-05	4.25E-05	3.67E-05	7.93E-05	-1.39E-15	9.66E-16	-4.24E-16	3.71E-05	2.77E-05	6.48E-05	1.10E-04	5.49E-05	1.65E-04	7.33E-05	3.06E-05	1.04E-04	6.09E-06	8.03E-06	1.41E-05	-2.05E-05	6.19E-06	-1.43E-05	5.14E-06	1.06E-05	1.57E-05	6.78E-06	1.17E-05	1.85E-05	5.60E-06	1.57E-05	2.13E-05	1.09E-05	-2.73E-06	8.15E-06	4.70E-05	3.05E-05	7.76E-05	5.60E-16	-2.16E-16	3.45E-16	1.74E-05	1.26E-05	3.00E-05	5.64E-05	2.91E-05	8.54E-05	5.91E-05	2.55E-05	8.46E-05	1.88E-05	1.08E-05	2.96E-05	1.39E-05	2.52E-06	1.65E-05	2.26E-05	3.18E-06	2.58E-05	2.87E-05	6.43E-06	3.51E-05	2.53E-05	-7.47E-07	2.46E-05	-2.80E-05	-7.17E-06	-3.52E-05	5.21E-05	2.01E-05	7.22E-05	-5.01E-16	-8.34E-16	-1.34E-15	1.34E-05	2.34E-05	3.68E-05	5.06E-05	2.06E-05	7.12E-05	5.77E-05	1.12E-05	6.89E-05	3.18E-05	3.28E-06	3.51E-05	2.62E-05	-4.27E-07	2.58E-05	2.88E-05	2.15E-06	3.10E-05	3.16E-05	3.77E-06	3.54E-05	2.69E-05	1.67E-05	4.37E-05	1
1.6	9.73E-05	-1.13E-05	8.60E-05	2.07E-04	9.23E-05	2.99E-04	-1.06E-17	6.00E-17	4.95E-17	3.30E-04	1.59E-04	4.89E-04	2.96E-04	1.78E-04	4.74E-04	1.94E-04	1.35E-04	3.29E-04	1.01E-04	3.97E-05	1.40E-04	-2.83E-05	6.13E-06	-2.22E-05	-2.99E-05	-3.50E-06	-3.34E-05	2.93E-05	4.90E-06	3.42E-05	-3.49E-05	-1.70E-05	-5.19E-05	-5.49E-05	-3.28E-05	-8.76E-05	4.53E-05	3.76E-05	8.30E-05	-1.47E-15	9.91E-16	-4.83E-16	3.80E-05	2.89E-05	6.69E-05	1.13E-04	5.61E-05	1.69E-04	7.42E-05	3.05E-05	1.05E-04	6.54E-06	7.75E-06	1.43E-05	-2.04E-05	6.30E-06	-1.41E-05	5.72E-06	1.08E-05	1.65E-05	7.20E-06	1.18E-05	1.90E-05	7.12E-06	1.59E-05	2.30E-05	1.16E-05	-2.92E-06	8.72E-06	4.66E-05	3.02E-05	7.68E-05	5.45E-16	-1.94E-16	3.52E-16	1.65E-05	1.22E-05	2.87E-05	5.59E-05	2.90E-05	8.49E-05	5.88E-05	2.55E-05	8.43E-05	1.94E-05	1.07E-05	3.00E-05	1.49E-05	2.37E-06	1.72E-05	2.36E-05	3.35E-06	2.69E-05	3.10E-05	5.79E-06	3.68E-05	2.67E-05	-1.05E-06	2.56E-05	-2.80E-05	-7.42E-06	-3.54E-05	5.32E-05	1.99E-05	7.31E-05	-5.81E-16	-8.70E-16	-1.45E-15	1.35E-05	2.37E-05	3.71E-05	5.14E-05	2.04E-05	7.18E-05	5.90E-05	1.11E-05	7.01E-05	3.27E-05	3.35E-06	3.61E-05	2.69E-05	-4.78E-07	2.64E-05	2.97E-05	2.08E-06	3.18E-05	3.22E-05	3.87E-06	3.60E-05	2.71E-05	1.73E-05	4.44E-05	1
1.64	9.97E-05	-1.26E-05	8.70E-05	2.11E-04	9.28E-05	3.04E-04	4.81E-18	4.37E-17	4.85E-17	3.36E-04	1.60E-04	4.96E-04	3.01E-04	1.80E-04	4.81E-04	1.99E-04	1.37E-04	3.35E-04	1.04E-04	4.00E-05	1.44E-04	-2.69E-05	6.41E-06	-2.05E-05	-2.89E-05	-3.65E-06	-3.26E-05	3.18E-05	5.52E-06	3.73E-05	-3.43E-05	-1.68E-05	-5.11E-05	-5.62E-05	-3.26E-05	-8.88E-05	4.83E-05	3.86E-05	8.69E-05	-1.52E-15	1.00E-15	-5.18E-16	3.91E-05	3.02E-05	6.92E-05	1.16E-04	5.73E-05	1.74E-04	7.50E-05	3.03E-05	1.05E-04	7.05E-06	7.44E-06	1.45E-05	-2.02E-05	6.42E-06	-1.38E-05	6.39E-06	1.09E-05	1.73E-05	7.72E-06	1.19E-05	1.97E-05	8.77E-06	1.61E-05	2.49E-05	1.24E-05	-3.13E-06	9.24E-06	4.62E-05	2.98E-05	7.60E-05	5.25E-16	-1.70E-16	3.55E-16	1.56E-05	1.17E-05	2.73E-05	5.55E-05	2.89E-05	8.44E-05	5.84E-05	2.56E-05	8.40E-05	1.99E-05	1.06E-05	3.05E-05	1.58E-05	2.23E-06	1.81E-05	2.45E-05	3.49E-06	2.80E-05	3.33E-05	5.13E-06	3.84E-05	2.81E-05	-1.34E-06	2.68E-05	-2.80E-05	-7.71E-06	-3.57E-05	5.42E-05	1.98E-05	7.40E-05	-6.51E-16	-8.94E-16	-1.55E-15	1.36E-05	2.39E-05	3.74E-05	5.21E-05	2.02E-05	7.23E-05	6.02E-05	1.11E-05	7.13E-05	3.37E-05	3.41E-06	3.71E-05	2.76E-05	-5.29E-07	2.71E-05	3.07E-05	2.02E-06	3.27E-05	3.27E-05	3.96E-06	3.66E-05	2.73E-05	1.78E-05	4.51E-05	1
1.68	1.02E-04	-1.40E-05	8.81E-05	2.15E-04	9.33E-05	3.09E-04	2.30E-17	2.42E-17	4.73E-17	3.41E-04	1.62E-04	5.03E-04	3.07E-04	1.82E-04	4.88E-04	2.03E-04	1.39E-04	3.42E-04	1.08E-04	4.02E-05	1.48E-04	-2.54E-05	6.70E-06	-1.87E-05	-2.79E-05	-3.80E-06	-3.17E-05	3.44E-05	6.17E-06	4.06E-05	-3.36E-05	-1.66E-05	-5.02E-05	-5.74E-05	-3.24E-05	-8.98E-05	5.15E-05	3.95E-05	9.10E-05	-1.53E-15	1.01E-15	-5.25E-16	4.01E-05	3.15E-05	7.17E-05	1.20E-04	5.85E-05	1.78E-04	7.59E-05	3.01E-05	1.06E-04	7.62E-06	7.13E-06	1.48E-05	-2.00E-05	6.53E-06	-1.34E-05	7.13E-06	1.11E-05	1.82E-05	8.32E-06	1.21E-05	2.04E-05	1.05E-05	1.63E-05	2.68E-05	1.31E-05	-3.37E-06	9.70E-06	4.57E-05	2.94E-05	7.52E-05	4.98E-16	-1.45E-16	3.53E-16	1.48E-05	1.12E-05	2.59E-05	5.50E-05	2.89E-05	8.39E-05	5.81E-05	2.57E-05	8.38E-05	2.05E-05	1.05E-05	3.10E-05	1.68E-05	2.09E-06	1.89E-05	2.56E-05	3.62E-06	2.92E-05	3.58E-05	4.43E-06	4.02E-05	2.95E-05	-1.61E-06	2.79E-05	-2.81E-05	-8.04E-06	-3.61E-05	5.52E-05	1.96E-05	7.48E-05	-7.10E-16	-9.06E-16	-1.62E-15	1.36E-05	2.41E-05	3.77E-05	5.28E-05	2.00E-05	7.28E-05	6.15E-05	1.10E-05	7.25E-05	3.47E-05	3.46E-06	3.81E-05	2.83E-05	-5.77E-07	2.77E-05	3.16E-05	1.95E-06	3.35E-05	3.32E-05	4.05E-06	3.73E-05	2.76E-05	1.82E-05	4.58E-05	1
1.72	1.04E-04	-1.53E-05	8.92E-05	2.20E-04	9.39E-05	3.14E-04	4.40E-17	1.71E-18	4.57E-17	3.47E-04	1.63E-04	5.10E-04	3.13E-04	1.83E-04	4.96E-04	2.08E-04	1.41E-04	3.49E-04	1.11E-04	4.05E-05	1.52E-04	-2.37E-05	7.01E-06	-1.67E-05	-2.67E-05	-3.95E-06	-3.07E-05	3.72E-05	6.85E-06	4.40E-05	-3.27E-05	-1.64E-05	-4.92E-05	-5.85E-05	-3.20E-05	-9.06E-05	5.47E-05	4.06E-05	9.52E-05	-1.50E-15	9.97E-16	-5.05E-16	4.13E-05	3.30E-05	7.42E-05	1.23E-04	5.98E-05	1.83E-04	7.68E-05	2.99E-05	1.07E-04	8.25E-06	6.81E-06	1.51E-05	-1.97E-05	6.65E-06	-1.30E-05	7.94E-06	1.12E-05	1.91E-05	9.03E-06	1.22E-05	2.12E-05	1.24E-05	1.65E-05	2.89E-05	1.37E-05	-3.61E-06	1.01E-05	4.52E-05	2.91E-05	7.43E-05	4.65E-16	-1.18E-16	3.47E-16	1.39E-05	1.07E-05	2.46E-05	5.46E-05	2.88E-05	8.34E-05	5.78E-05	2.58E-05	8.35E-05	2.11E-05	1.03E-05	3.14E-05	1.78E-05	1.96E-06	1.98E-05	2.66E-05	3.73E-06	3.03E-05	3.83E-05	3.71E-06	4.20E-05	3.09E-05	-1.88E-06	2.91E-05	-2.82E-05	-8.40E-06	-3.66E-05	5.62E-05	1.94E-05	7.56E-05	-7.57E-16	-9.05E-16	-1.66E-15	1.37E-05	2.43E-05	3.80E-05	5.36E-05	1.98E-05	7.34E-05	6.27E-05	1.09E-05	7.36E-05	3.56E-05	3.50E-06	3.91E-05	2.90E-05	-6.23E-07	2.84E-05	3.25E-05	1.89E-06	3.44E-05	3.38E-05	4.12E-06	3.80E-05	2.80E-05	1.85E-05	4.65E-05	1
